
Text conversion of header file \h820\optphotolab\Drones\DJI__Mavic_3M\viikki-field_calibration__20240521\panel_reflec\reflec_panels__00150.asd
 -------------------------------------------------------------
                                                                                                                                                            
The instrument number was  18875/1
New ASD spectrum file: Program version = 6.04 file version = 7.00
Spectrum saved: 05/21/2024 at 11:24:16
VNIR integration time : 34
VNIR channel 1 wavelength = 350 wavelength step = 1
There was one sample per data value
xmin = 350 xmax= 2500
ymin= 0 ymax= 1.25
The instrument digitizes spectral values to 16 bits
SWIR1 gain was 16 offset was 2051
SWIR2 gain was 16 offset was 2069
Join between VNIR and SWIR1 was 1000 nm
Join between SWIR1 and SWIR2 was 1800 nm
VNIR dark signal subtracted
100 dark measurements taken Tue May 21 11:13:53 2024
DCC value was 0
Data is compared to a white reference:
10 white reference measurements taken Tue May 21 11:13:55 2024
There was no foreoptic attached
Spectrum file is raw data with embedded reference
GPS-Latitude is S0
GPS-Longitude is E0
GPS-Altitude is 0
GPS-UTC is 00:00:00

Smart Detector
Serial#  0
Signal (A)  0.000E00
Dark (A)  0.000E00
Ref (A)  0.000E00
Status  0 - Uninitialized
Gain  E-4
Averaging  0
Temp (C)  0.0
Humid (%)  0.0

Wavelength	reflec_panels-00150.asd
350	 4.34852393157055E-02 
351	 4.38144056313948E-02 
352	 4.33946404557453E-02 
353	 4.33517275465499E-02 
354	 4.37039847878719E-02 
355	 0.044143130242638 
356	 4.47803754151865E-02 
357	 4.47913063829003E-02 
358	 4.44156215140428E-02 
359	 4.47996415903609E-02 
360	 4.49029817380003E-02 
361	 4.48816012335015E-02 
362	 4.49440656927437E-02 
363	 4.48595008324873E-02 
364	 4.50520427335243E-02 
365	 4.53493923510519E-02 
366	 4.53719368070466E-02 
367	 4.51715168064909E-02 
368	 4.54212293376254E-02 
369	 4.60775332361444E-02 
370	 4.60830256795806E-02 
371	 4.60865429012137E-02 
372	 4.63415377782847E-02 
373	 4.68325058934799E-02 
374	 4.69254923481014E-02 
375	 4.68510227505257E-02 
376	 4.69799384496523E-02 
377	 4.76796930653161E-02 
378	 4.77690456685771E-02 
379	 0.047764677958744 
380	 4.81163830706461E-02 
381	 4.84580333402125E-02 
382	 4.86678317517852E-02 
383	 4.87954019993299E-02 
384	 4.89882221935413E-02 
385	 4.93347395917133E-02 
386	 4.99014413644173E-02 
387	 5.04969871178687E-02 
388	 5.06403278288192E-02 
389	 5.07417357420473E-02 
390	 5.08672292642338E-02 
391	 5.09848742096488E-02 
392	 5.09785959824419E-02 
393	 5.13602516419717E-02 
394	 5.18883678132499E-02 
395	 5.19366047984537E-02 
396	 5.23412719944775E-02 
397	 5.27579578558438E-02 
398	 5.29395288358866E-02 
399	 5.30409952057962E-02 
400	 5.31704447625903E-02 
401	 5.32419495958532E-02 
402	 5.31877801163108E-02 
403	 5.33194627071139E-02 
404	 5.35817773774749E-02 
405	 5.38723986491047E-02 
406	 5.40644930315126E-02 
407	 5.42545834579613E-02 
408	 5.44637831497966E-02 
409	 5.46727222029111E-02 
410	 0.054789200389152 
411	 5.48873487650496E-02 
412	 5.50457201963405E-02 
413	 5.53156342820216E-02 
414	 5.54849154125144E-02 
415	 5.56290710394892E-02 
416	 5.58175271300974E-02 
417	 5.60497910615591E-02 
418	 5.62760272473453E-02 
419	 5.64675336458522E-02 
420	 5.66174579265105E-02 
421	 0.056767954449151 
422	 5.70213621453641E-02 
423	 5.73268174501839E-02 
424	 0.057485573747403 
425	 5.77377575745697E-02 
426	 5.80052174888631E-02 
427	 5.82258788162036E-02 
428	 5.86351560205313E-02 
429	 5.88343554861999E-02 
430	 5.89097722392469E-02 
431	 5.91976960435079E-02 
432	 5.93670245009955E-02 
433	 5.96229898742873E-02 
434	 0.060021159158938 
435	 6.02745988645184E-02 
436	 6.05019280490902E-02 
437	 6.06637838455654E-02 
438	 6.07426449168187E-02 
439	 6.10502460581406E-02 
440	 6.13164406829554E-02 
441	 6.14683487804747E-02 
442	 0.06166161354701 
443	 6.18988509029896E-02 
444	 6.20734761900446E-02 
445	 6.21500838934928E-02 
446	 0.062380818775833 
447	 6.25792381528081E-02 
448	 6.27050542810069E-02 
449	 6.28225714770188E-02 
450	 6.30981399357058E-02 
451	 6.32958620722236E-02 
452	 6.33284958045578E-02 
453	 6.34959329012135E-02 
454	 6.37220542257406E-02 
455	 6.39076300130314E-02 
456	 6.39839337876407E-02 
457	 6.41962311775679E-02 
458	 6.43592771372011E-02 
459	 6.44281831448208E-02 
460	 6.45608346121442E-02 
461	 6.46432599427108E-02 
462	 6.47338262596992E-02 
463	 6.48864212677363E-02 
464	 6.49898955938945E-02 
465	 6.50403216678339E-02 
466	 6.50986181084888E-02 
467	 6.52611310635298E-02 
468	 6.53779356701193E-02 
469	 6.55191901106711E-02 
470	 6.57015650044105E-02 
471	 6.57239693248649E-02 
472	 6.57826793336451E-02 
473	 6.58932789610649E-02 
474	 6.59974824824262E-02 
475	 6.61056700415032E-02 
476	 0.06617132641262 
477	 6.62206678741433E-02 
478	 6.63845465797696E-02 
479	 6.64839758144428E-02 
480	 6.65762170593265E-02 
481	 6.67342784836313E-02 
482	 6.68009249705995E-02 
483	 6.69147614600317E-02 
484	 6.70947723471062E-02 
485	 6.72490533065363E-02 
486	 6.74555849368352E-02 
487	 6.76536544123767E-02 
488	 6.78065824078525E-02 
489	 6.80244484390594E-02 
490	 6.81637189732142E-02 
491	 6.82413998797285E-02 
492	 6.83536206659366E-02 
493	 6.85390749354111E-02 
494	 6.87218325967714E-02 
495	 6.88618115015064E-02 
496	 6.89916173908653E-02 
497	 0.069219947376134 
498	 6.94751642553117E-02 
499	 6.96566216546557E-02 
500	 6.98373571380401E-02 
501	 7.00225114415709E-02 
502	 7.02216010616533E-02 
503	 7.04472254437252E-02 
504	 7.06143109308426E-02 
505	 7.08200504165726E-02 
506	 7.11119207200306E-02 
507	 7.12927348867938E-02 
508	 7.14412225539243E-02 
509	 7.16309607466618E-02 
510	 7.19104730616605E-02 
511	 7.20882527603127E-02 
512	 7.22647802576478E-02 
513	 7.24791403821765E-02 
514	 7.25819820617553E-02 
515	 7.27757177399684E-02 
516	 7.30683787739239E-02 
517	 0.073385001964043 
518	 7.36829219099821E-02 
519	 7.38798101865364E-02 
520	 0.073996663307667 
521	 0.074166173157783 
522	 7.44554487467836E-02 
523	 7.47155444849611E-02 
524	 7.48490212966908E-02 
525	 7.50626847323727E-02 
526	 7.52707968810148E-02 
527	 7.54617181406779E-02 
528	 7.56749390152135E-02 
529	 7.59125694893187E-02 
530	 7.61073328881678E-02 
531	 7.62405704204955E-02 
532	 7.63910471266557E-02 
533	 7.65954148275498E-02 
534	 7.68419950768819E-02 
535	 7.70851970286391E-02 
536	 7.72376682211643E-02 
537	 7.73702648676536E-02 
538	 7.75448816037803E-02 
539	 7.77946488725338E-02 
540	 7.79841311533447E-02 
541	 0.078117925995199 
542	 7.82489291817665E-02 
543	 7.84356681428462E-02 
544	 7.86539751950169E-02 
545	 7.88650923669079E-02 
546	 7.90273355962039E-02 
547	 7.91989230008056E-02 
548	 7.93748853865049E-02 
549	 7.95475821633116E-02 
550	 7.97318592257011E-02 
551	 7.98826124568631E-02 
552	 8.00152866584011E-02 
553	 8.01656616280952E-02 
554	 8.03014181635155E-02 
555	 8.04623269227138E-02 
556	 0.080641326837929 
557	 0.08075706554853 
558	 8.09255637269988E-02 
559	 8.11439749215659E-02 
560	 8.13570566260131E-02 
561	 8.14616447225321E-02 
562	 8.16068849101376E-02 
563	 8.17935880582338E-02 
564	 8.19032205298101E-02 
565	 8.20451594101873E-02 
566	 8.21858509271736E-02 
567	 8.23045141300818E-02 
568	 8.24820404011135E-02 
569	 8.26403505485305E-02 
570	 8.28032562399158E-02 
571	 8.30191191914027E-02 
572	 8.31078518372692E-02 
573	 8.32305107178213E-02 
574	 8.34168962940548E-02 
575	 8.34560358435081E-02 
576	 8.35261325169226E-02 
577	 8.36168506806209E-02 
578	 8.36845845291888E-02 
579	 8.37919437000053E-02 
580	 8.39104905840408E-02 
581	 8.39934068654785E-02 
582	 8.39978091785281E-02 
583	 8.41787680063384E-02 
584	 8.43714978601669E-02 
585	 8.44519048452214E-02 
586	 8.45902197154067E-02 
587	 8.46875921586493E-02 
588	 8.47804429784715E-02 
589	 8.49588025608924E-02 
590	 8.51298038133733E-02 
591	 8.52265338971931E-02 
592	 8.52601955939085E-02 
593	 8.53603202086482E-02 
594	 8.54318828665941E-02 
595	 8.55161790212645E-02 
596	 8.56531284801871E-02 
597	 8.57112319364009E-02 
598	 8.57396117060273E-02 
599	 0.085803896693477 
600	 8.59665231477846E-02 
601	 0.086052089629411 
602	 8.60948698519546E-02 
603	 8.61551307091009E-02 
604	 8.62478750378177E-02 
605	 8.63625534605145E-02 
606	 8.64633596755905E-02 
607	 8.65115363492655E-02 
608	 8.65490866162675E-02 
609	 8.66076789244752E-02 
610	 8.66857075224523E-02 
611	 8.67342607827314E-02 
612	 8.68091694506518E-02 
613	 8.68969752600361E-02 
614	 8.69665286987717E-02 
615	 8.69988852038112E-02 
616	 8.70320173083794E-02 
617	 8.71062009825124E-02 
618	 8.72455540600138E-02 
619	 8.72514490687974E-02 
620	 8.72940837622332E-02 
621	 8.74600284743739E-02 
622	 0.087511767296632 
623	 8.75224971226147E-02 
624	 8.75524083100878E-02 
625	 8.76523806012955E-02 
626	 8.77918551241091E-02 
627	 0.087882229998217 
628	 8.78998421080573E-02 
629	 8.79084289174096E-02 
630	 8.80189557799735E-02 
631	 8.81238701315021E-02 
632	 0.088125991277265 
633	 8.81746445519123E-02 
634	 8.82368457915811E-02 
635	 8.83194725218708E-02 
636	 8.84428341202686E-02 
637	 8.84842737461096E-02 
638	 0.088508484565079 
639	 8.85781640218704E-02 
640	 8.87144741999851E-02 
641	 8.87281932933459E-02 
642	 8.87131354812485E-02 
643	 8.88193803510909E-02 
644	 8.88895729441636E-02 
645	 8.89606085111671E-02 
646	 8.90328065544031E-02 
647	 8.90632781128868E-02 
648	 8.90934997750725E-02 
649	 8.91884234458574E-02 
650	 8.93406563651446E-02 
651	 8.93302784175141E-02 
652	 0.089350030541193 
653	 8.93937756603596E-02 
654	 0.089378994498523 
655	 8.94040735249638E-02 
656	 8.95260833410451E-02 
657	 8.97332066212901E-02 
658	 8.98889898382142E-02 
659	 8.98640745027347E-02 
660	 8.98055764989281E-02 
661	 8.98560866023661E-02 
662	 8.99411716186454E-02 
663	 9.00075951654137E-02 
664	 9.00238458568387E-02 
665	 8.99920715562951E-02 
666	 9.00869931754452E-02 
667	 9.02072266250408E-02 
668	 9.02678962377522E-02 
669	 9.02832005495999E-02 
670	 9.03095439749474E-02 
671	 9.03300885598795E-02 
672	 9.03309136152051E-02 
673	 0.090447933759704 
674	 9.05516534706324E-02 
675	 9.05940621648669E-02 
676	 0.090619359261352 
677	 9.07626409268225E-02 
678	 0.0908591133762 
679	 9.08068895615886E-02 
680	 9.07672590664864E-02 
681	 0.090774738442074 
682	 9.08413195060341E-02 
683	 9.09589388002774E-02 
684	 9.11468090398027E-02 
685	 9.11452563516945E-02 
686	 9.09962761864727E-02 
687	 9.11096297969986E-02 
688	 9.14191542301583E-02 
689	 9.17173042488958E-02 
690	 9.18064533850346E-02 
691	 0.091786927520999 
692	 9.18235028810981E-02 
693	 9.19075100792528E-02 
694	 9.19606243811091E-02 
695	 0.09204062140029 
696	 0.092083208152046 
697	 9.21224642332556E-02 
698	 9.23232029365505E-02 
699	 9.24198323454363E-02 
700	 0.092444581314751 
701	 9.24906508528526E-02 
702	 9.26016877239024E-02 
703	 9.26893178063078E-02 
704	 9.27703642332702E-02 
705	 9.29059819923071E-02 
706	 9.29875957835152E-02 
707	 9.30237492927273E-02 
708	 0.093054501687811 
709	 9.31453432884996E-02 
710	 9.32436579736591E-02 
711	 9.33589196040932E-02 
712	 9.34954486602799E-02 
713	 9.35886007431457E-02 
714	 9.36629872514361E-02 
715	 9.37039528765711E-02 
716	 9.36912776164468E-02 
717	 9.37740306823602E-02 
718	 9.39139191550464E-02 
719	 9.40754783401112E-02 
720	 9.42624354201317E-02 
721	 9.43820475396451E-02 
722	 9.44426331727149E-02 
723	 9.44853766593582E-02 
724	 9.45045908677741E-02 
725	 9.46101013004602E-02 
726	 9.47703139961529E-02 
727	 9.48639101285402E-02 
728	 9.49118063184669E-02 
729	 9.49703539676778E-02 
730	 9.50637438291805E-02 
731	 9.51632642560999E-02 
732	 9.52721965294587E-02 
733	 9.53935066315173E-02 
734	 9.55143033017096E-02 
735	 9.55667030458083E-02 
736	 9.56407575002683E-02 
737	 9.57665691486207E-02 
738	 0.095920791103948 
739	 9.59753669032919E-02 
740	 9.60314649157977E-02 
741	 0.096127030588562 
742	 9.61835598725762E-02 
743	 9.63287960895646E-02 
744	 9.64197607171174E-02 
745	 0.096369244319179 
746	 0.096434972262996 
747	 9.65180797360153E-02 
748	 9.66115703413784E-02 
749	 9.67457547755836E-02 
750	 0.096896376930157 
751	 9.69931435103675E-02 
752	 9.70361685587886E-02 
753	 9.71105223217201E-02 
754	 9.72437271176404E-02 
755	 9.73574513830912E-02 
756	 9.73834057503595E-02 
757	 9.73362544513288E-02 
758	 9.72160938422764E-02 
759	 9.70912195008184E-02 
760	 9.71006089467158E-02 
761	 9.77627825374957E-02 
762	 9.85529624063715E-02 
763	 9.88011058878095E-02 
764	 9.91674732473875E-02 
765	 9.92544156161722E-02 
766	 9.91346636138957E-02 
767	 9.89472999412085E-02 
768	 9.88041590189438E-02 
769	 9.87633190211848E-02 
770	 9.87481376995351E-02 
771	 9.87016519020839E-02 
772	 0.098752276353546 
773	 9.89057073608208E-02 
774	 9.90361516431478E-02 
775	 9.89772054052066E-02 
776	 9.90176813939735E-02 
777	 0.099178159565649 
778	 9.93563609548458E-02 
779	 9.93359333422716E-02 
780	 9.93816111672658E-02 
781	 9.95179325756065E-02 
782	 9.96760462958602E-02 
783	 9.97039687614256E-02 
784	 9.97502733114811E-02 
785	 9.98154061141749E-02 
786	 0.09985090925993 
787	 0.099967172099077 
788	 0.100022431515378 
789	 0.100036376503201 
790	 0.100183817755188 
791	 0.100285462580585 
792	 0.10036317054289 
793	 0.100454747395893 
794	 0.100562582201735 
795	 0.100612030107425 
796	 0.10066986919229 
797	 0.100777049831054 
798	 0.100703590320851 
799	 0.100686440110467 
800	 0.100811331722592 
801	 0.101026937642856 
802	 0.101047867712051 
803	 0.101062462008789 
804	 0.101149131530497 
805	 0.10120891736108 
806	 0.101283957491717 
807	 0.101333886390967 
808	 0.101346140577003 
809	 0.101394640330697 
810	 0.101458802288146 
811	 0.101479140868596 
812	 0.101425886753886 
813	 0.101449252433969 
814	 0.101452626033879 
815	 0.101496529067273 
816	 0.101704542531405 
817	 0.101753827671231 
818	 0.101765284320308 
819	 0.101760765566878 
820	 0.101613108699111 
821	 0.101702317314895 
822	 0.101868386639235 
823	 0.101990151535385 
824	 0.102245363889256 
825	 0.102094007476711 
826	 0.101873512591439 
827	 0.101978058559397 
828	 0.102092400678553 
829	 0.101976375141855 
830	 0.101890252391534 
831	 0.102226764385303 
832	 0.102277539955272 
833	 0.10224749669566 
834	 0.102235987566143 
835	 0.102188077680898 
836	 0.102261142130073 
837	 0.102304325644373 
838	 0.102257399037919 
839	 0.102269893613846 
840	 0.102360979901901 
841	 0.102397417259994 
842	 0.102316851248276 
843	 0.102355654253408 
844	 0.102527035762413 
845	 0.102645652711573 
846	 0.102531150949904 
847	 0.102418078025243 
848	 0.10243505759684 
849	 0.102529426008404 
850	 0.102544846033241 
851	 0.102603619466006 
852	 0.10261979813369 
853	 0.102584029966492 
854	 0.102591445644244 
855	 0.102584918517033 
856	 0.102649812744969 
857	 0.102751933015638 
858	 0.102631614480433 
859	 0.10259674533811 
860	 0.102640018326527 
861	 0.102707495791975 
862	 0.102879013895914 
863	 0.102765396553324 
864	 0.10262614821127 
865	 0.102825866198291 
866	 0.10293216115726 
867	 0.102954035159746 
868	 0.102926120129121 
869	 0.102883856267123 
870	 0.102728398705951 
871	 0.102746130428994 
872	 0.102911088211957 
873	 0.102916859938327 
874	 0.102905800564942 
875	 0.102911942005479 
876	 0.102915091567133 
877	 0.10284722082763 
878	 0.102995766231079 
879	 0.10307453974396 
880	 0.102890251225773 
881	 0.102683100736444 
882	 0.102838865028523 
883	 0.102973712034347 
884	 0.102804366265357 
885	 0.103158232417916 
886	 0.103061928436313 
887	 0.102784755124352 
888	 0.102898412489821 
889	 0.102878004685128 
890	 0.102963924484297 
891	 0.103054101155041 
892	 0.10292227438678 
893	 0.102925456510869 
894	 0.103025072148211 
895	 0.103052099268292 
896	 0.102830775186785 
897	 0.103038495978327 
898	 0.103159921558225 
899	 0.103095381903916 
900	 0.103403017407833 
901	 0.103482210866016 
902	 0.103346680459541 
903	 0.103271119643002 
904	 0.103659484262988 
905	 0.103287475431267 
906	 0.103060841404661 
907	 0.103483865707186 
908	 0.103396511703912 
909	 0.10339783710877 
910	 0.103528449501857 
911	 0.10361924188835 
912	 0.1033625413811 
913	 0.103134883869092 
914	 0.103231871214053 
915	 0.103665953327787 
916	 0.103647290569254 
917	 0.103940776647245 
918	 0.104197633510088 
919	 0.103918570041102 
920	 0.103963865755136 
921	 0.103974789811326 
922	 0.103910774752123 
923	 0.103921270266858 
924	 0.104208333332461 
925	 0.104158170571093 
926	 0.103828523934881 
927	 0.103758065299147 
928	 0.104106871258857 
929	 0.103984391711256 
930	 0.103656482417598 
931	 0.104433508082519 
932	 0.104334767560198 
933	 0.104198446386039 
934	 0.104430531111552 
935	 0.104317201013746 
936	 0.104349761894964 
937	 0.104313448620914 
938	 0.1042005808131 
939	 0.104285776971076 
940	 0.104393730398483 
941	 0.104511725600679 
942	 0.104557166936464 
943	 0.10442185021618 
944	 0.105525983142552 
945	 0.105622313785155 
946	 0.10421229964928 
947	 0.10424952417457 
948	 0.104621823321788 
949	 0.104795115715867 
950	 0.104788237000965 
951	 0.105244205080517 
952	 0.105084976267933 
953	 0.105006921606737 
954	 0.105545774621525 
955	 0.106342960979331 
956	 0.105912986547573 
957	 0.105406844030754 
958	 0.105627682234916 
959	 0.105724773314812 
960	 0.106045062334367 
961	 0.105812497514819 
962	 0.105008444890302 
963	 0.105217608257692 
964	 0.106528754270061 
965	 0.106627921676351 
966	 0.105197155240603 
967	 0.10618061630392 
968	 0.106642140042589 
969	 0.106823539427712 
970	 0.107058276665547 
971	 0.10652870182762 
972	 0.105668020267243 
973	 0.105761471963317 
974	 0.10686729102734 
975	 0.106345855322967 
976	 0.106295806063677 
977	 0.106492824660866 
978	 0.106434788917125 
979	 0.106261800135153 
980	 0.105976857970246 
981	 0.106069805007899 
982	 0.106488589756219 
983	 0.106119333416049 
984	 0.106004889230127 
985	 0.106550682036502 
986	 0.107289533281515 
987	 0.10671005683988 
988	 0.106872691163924 
989	 0.107210884143721 
990	 0.107131808554759 
991	 0.106977333788333 
992	 0.106904453018868 
993	 0.106783833304283 
994	 0.106711474739742 
995	 0.107178662567905 
996	 0.108482175284643 
997	 0.108664729170411 
998	 0.107604252500336 
999	 0.107925525438229 
1000	 0.108119226656046 
1001	 0.110548246245858 
1002	 0.110992017719581 
1003	 0.110952441449196 
1004	 0.110419081572847 
1005	 0.109330954620205 
1006	 0.109650711588685 
1007	 0.109196295624418 
1008	 0.109397977925431 
1009	 0.11086666013541 
1010	 0.110796405279281 
1011	 0.111108085018696 
1012	 0.111743114034976 
1013	 0.110488929635878 
1014	 0.110322064918279 
1015	 0.110123440747077 
1016	 0.108958700642482 
1017	 0.108619676187768 
1018	 0.109387221637392 
1019	 0.109388354312503 
1020	 0.10938384238469 
1021	 0.110462376990914 
1022	 0.110971044222474 
1023	 0.110942178525605 
1024	 0.110972972323284 
1025	 0.110798557621256 
1026	 0.1111136186929 
1027	 0.112281568839166 
1028	 0.112415804201901 
1029	 0.112118863144616 
1030	 0.11173597135104 
1031	 0.110920311427573 
1032	 0.109533431369908 
1033	 0.109467632402477 
1034	 0.109365733880043 
1035	 0.109107664960085 
1036	 0.109856309539843 
1037	 0.110412237079594 
1038	 0.110679702100992 
1039	 0.111059921591983 
1040	 0.111486735343539 
1041	 0.111539693446856 
1042	 0.111546963050224 
1043	 0.111593038744916 
1044	 0.111758081524192 
1045	 0.110930768067974 
1046	 0.110141797268062 
1047	 0.109748117415642 
1048	 0.109730737429776 
1049	 0.110726100511901 
1050	 0.110696142742146 
1051	 0.110255469401837 
1052	 0.110951136531733 
1053	 0.111928467717515 
1054	 0.113137547346871 
1055	 0.113864108752878 
1056	 0.114639474066285 
1057	 0.114864344927949 
1058	 0.113992021862283 
1059	 0.11471737742845 
1060	 0.114952359338721 
1061	 0.114648371173511 
1062	 0.113753257651003 
1063	 0.11190836548517 
1064	 0.111352675821029 
1065	 0.111726290946933 
1066	 0.111894167321246 
1067	 0.112242614478223 
1068	 0.113034158960781 
1069	 0.11397523247371 
1070	 0.11451051160706 
1071	 0.115695878387938 
1072	 0.116174694454445 
1073	 0.115539316370638 
1074	 0.114632982659944 
1075	 0.113431713568729 
1076	 0.113352521414614 
1077	 0.113829679401539 
1078	 0.11428121893331 
1079	 0.114395319725231 
1080	 0.11327849485423 
1081	 0.112896838114173 
1082	 0.111942712824944 
1083	 0.111712066221128 
1084	 0.112632235215005 
1085	 0.112945607249807 
1086	 0.113057301248428 
1087	 0.112551516871001 
1088	 0.113570767597912 
1089	 0.114418360407477 
1090	 0.115220582955083 
1091	 0.115854655889399 
1092	 0.115605961391447 
1093	 0.115962191184557 
1094	 0.115796099110375 
1095	 0.11560814865591 
1096	 0.115287008013241 
1097	 0.114254944850687 
1098	 0.113562451971159 
1099	 0.113273842946115 
1100	 0.112961207392139 
1101	 0.112721818119168 
1102	 0.112344992713454 
1103	 0.111345125065907 
1104	 0.110516449343091 
1105	 0.110381474092548 
1106	 0.110607237548451 
1107	 0.111829289521775 
1108	 0.113364928535214 
1109	 0.114220960482624 
1110	 0.115010835377323 
1111	 0.115106822026072 
1112	 0.113842205340768 
1113	 0.113942114272104 
1114	 0.114332405479538 
1115	 0.114170611640396 
1116	 0.114562835107233 
1117	 0.115625332787367 
1118	 0.114984619247683 
1119	 0.115360010178605 
1120	 0.116725422851461 
1121	 0.11791095332026 
1122	 0.117330506273625 
1123	 0.11402111746964 
1124	 0.112870152780643 
1125	 0.111135625043174 
1126	 0.110701870639529 
1127	 0.112561138231149 
1128	 0.113405596388451 
1129	 0.114050449833665 
1130	 0.114305693986438 
1131	 0.114601593176293 
1132	 0.114109797184508 
1133	 0.113542187960724 
1134	 0.113801360223531 
1135	 0.114616780361047 
1136	 0.116188777336132 
1137	 0.11622896441536 
1138	 0.115865357415826 
1139	 0.11636126760473 
1140	 0.116669341759741 
1141	 0.1169530956556 
1142	 0.118240831365991 
1143	 0.118696225331966 
1144	 0.118713798667923 
1145	 0.118132141502206 
1146	 0.116720447682574 
1147	 0.11615098068408 
1148	 0.114150232939353 
1149	 0.112314811397237 
1150	 0.111812274882974 
1151	 0.111668108347588 
1152	 0.112316834394145 
1153	 0.114115261057517 
1154	 0.115010279380138 
1155	 0.116096806785723 
1156	 0.116615704686228 
1157	 0.116613623668455 
1158	 0.116795128625402 
1159	 0.117304535780405 
1160	 0.117248138631943 
1161	 0.116504195113228 
1162	 0.116412754664512 
1163	 0.116847815889865 
1164	 0.116239640103311 
1165	 0.116121918979887 
1166	 0.116481738968862 
1167	 0.116479038748208 
1168	 0.115953093123833 
1169	 0.116048878928508 
1170	 0.116631683449789 
1171	 0.116708443917141 
1172	 0.116998293709805 
1173	 0.116781530188888 
1174	 0.115631416569338 
1175	 0.115324451800349 
1176	 0.115126550596711 
1177	 0.115085420229893 
1178	 0.115612119833505 
1179	 0.116201136614982 
1180	 0.116378006166208 
1181	 0.1163452538893 
1182	 0.116355866949885 
1183	 0.116295946739063 
1184	 0.116078265686383 
1185	 0.115725096287594 
1186	 0.115443145557602 
1187	 0.114650893070577 
1188	 0.114659950407657 
1189	 0.115371590405207 
1190	 0.115620782667644 
1191	 0.116080317785007 
1192	 0.116408967403557 
1193	 0.116318600448925 
1194	 0.116428426868208 
1195	 0.116633295413098 
1196	 0.117181726745096 
1197	 0.117203776470331 
1198	 0.116926024707438 
1199	 0.116982002073977 
1200	 0.116958276510886 
1201	 0.116969771336418 
1202	 0.117407850208762 
1203	 0.11731914392584 
1204	 0.116690224855049 
1205	 0.11646658868093 
1206	 0.116275488130999 
1207	 0.116084461588368 
1208	 0.115976939887036 
1209	 0.115986719578994 
1210	 0.115846921635849 
1211	 0.115966889558282 
1212	 0.116271454615003 
1213	 0.116978087786151 
1214	 0.117227866858036 
1215	 0.117575209937937 
1216	 0.117562319288981 
1217	 0.117020507760826 
1218	 0.116969447010817 
1219	 0.116916854361104 
1220	 0.117029743823417 
1221	 0.117436383563319 
1222	 0.117790918988783 
1223	 0.118400508782202 
1224	 0.118598802163893 
1225	 0.118769031061522 
1226	 0.118701442787979 
1227	 0.118149035209286 
1228	 0.117592841815881 
1229	 0.117455542685656 
1230	 0.11732765382102 
1231	 0.117576087401294 
1232	 0.118490410022526 
1233	 0.118659031508153 
1234	 0.118662303683335 
1235	 0.118694531892113 
1236	 0.118303899161114 
1237	 0.11822217689541 
1238	 0.118538983483915 
1239	 0.118492178078469 
1240	 0.118016512333017 
1241	 0.118058373824593 
1242	 0.11824421642586 
1243	 0.118427213082721 
1244	 0.119320030026779 
1245	 0.119557758032849 
1246	 0.119120940174487 
1247	 0.119036268179075 
1248	 0.118853755566897 
1249	 0.118315767990971 
1250	 0.118241122158634 
1251	 0.118569164049112 
1252	 0.118515460609881 
1253	 0.11842836306363 
1254	 0.118408984209461 
1255	 0.117904842808789 
1256	 0.118229560235129 
1257	 0.119555031052681 
1258	 0.119900972789075 
1259	 0.120064066752748 
1260	 0.120401574439778 
1261	 0.120160698402668 
1262	 0.120156018518409 
1263	 0.120501813108248 
1264	 0.121103882200947 
1265	 0.121361795877058 
1266	 0.121315192211679 
1267	 0.121100803922621 
1268	 0.120788557171109 
1269	 0.120539748513279 
1270	 0.119809644531756 
1271	 0.119835190640315 
1272	 0.120524019970267 
1273	 0.120624647504295 
1274	 0.121010646025609 
1275	 0.120819083545524 
1276	 0.119689042630331 
1277	 0.119299232346419 
1278	 0.118739978596954 
1279	 0.118738221207535 
1280	 0.119472605462369 
1281	 0.120199289096395 
1282	 0.120945486299628 
1283	 0.121514100899692 
1284	 0.121725743212941 
1285	 0.12169012175818 
1286	 0.121407028693795 
1287	 0.120560081560392 
1288	 0.120274167675222 
1289	 0.119885418366128 
1290	 0.119822951752703 
1291	 0.120495192880038 
1292	 0.120373003249086 
1293	 0.11989438291422 
1294	 0.119523092377704 
1295	 0.11850899174084 
1296	 0.118247633924748 
1297	 0.118355136054278 
1298	 0.118589770155255 
1299	 0.119243045508858 
1300	 0.120172970683808 
1301	 0.120575137757319 
1302	 0.120812486141837 
1303	 0.120885051749419 
1304	 0.120289207948608 
1305	 0.120222970040431 
1306	 0.120393037893671 
1307	 0.120333299325131 
1308	 0.120201229286305 
1309	 0.120359643719024 
1310	 0.120508514200629 
1311	 0.120739941450354 
1312	 0.12139801561455 
1313	 0.121680179766699 
1314	 0.121772302215358 
1315	 0.121859847560526 
1316	 0.121731748654496 
1317	 0.121651272984348 
1318	 0.121647708465477 
1319	 0.121402494019514 
1320	 0.120980590352331 
1321	 0.121736707280274 
1322	 0.121965859908085 
1323	 0.122045969828498 
1324	 0.122151566982908 
1325	 0.122113448170223 
1326	 0.122136384616094 
1327	 0.122196374264937 
1328	 0.122162393391067 
1329	 0.121944979099714 
1330	 0.122035322916185 
1331	 0.122626250672881 
1332	 0.122500853409696 
1333	 0.122204662604049 
1334	 0.121781412711463 
1335	 0.120094831985502 
1336	 0.119838473924839 
1337	 0.120699135773305 
1338	 0.121044483224615 
1339	 0.121941688911525 
1340	 0.122613149238092 
1341	 0.122524457938495 
1342	 0.122175970538243 
1343	 0.122122974161131 
1344	 0.123208836340438 
1345	 0.123551444823746 
1346	 0.123981923010583 
1347	 0.124648842251163 
1348	 0.124705983197444 
1349	 0.125682949480723 
1350	 0.130357236460901 
1351	 0.13388135198376 
1352	 0.136604503514947 
1353	 0.137340598949925 
1354	 0.123346835912772 
1355	 0.102034042570338 
1356	 4.25755082214999E-02 
1357	-4.04544453982012E-02 
1358	-4.66778460997465E-02 
1359	-0.114566976397124 
1360	 0.056218969759716 
1361	 0.230916700579544 
1362	 0.614998171726228 
1363	 0.871690039775252 
1364	 0.768002562555208 
1365	-2.0181582501585E-03 
1366	-1.38354443200304 
1367	-1.31541941247529 
1368	-0.483826176379355 
1369	 1.08122066866806 
1370	 1.03604037951061 
1371	 1.01693537282651 
1372	 0.705549266753032 
1373	 0.268096348348365 
1374	 0.189539240273801 
1375	 0.155570647760501 
1376	 0.126724433949751 
1377	 0.162294951689355 
1378	 0.169896523825732 
1379	 0.124040486553115 
1380	 7.54534206683501E-02 
1381	-2.06647384468856E-02 
1382	-0.145442470509083 
1383	-0.258535554231875 
1384	-0.197569273082199 
1385	-5.60788590699136E-02 
1386	 0.103940184072859 
1387	 0.163346266524382 
1388	 0.140431953220878 
1389	 4.70454972243586E-02 
1390	-1.49195281263211E-02 
1391	-5.34459510767291E-03 
1392	 2.32408404654092E-02 
1393	 0.063765899964716 
1394	 0.194715137187564 
1395	 0.207314166682685 
1396	 0.161500273488623 
1397	 0.149466812118806 
1398	 0.121250697181432 
1399	 0.107013495170563 
1400	 0.099670650419842 
1401	 9.52871987467561E-02 
1402	 7.82895068097681E-02 
1403	 8.14775603782511E-02 
1404	 0.110375901180585 
1405	 0.119533667968689 
1406	 0.135870748692253 
1407	 0.13240320276369 
1408	 0.102824828853332 
1409	 9.80055577264904E-02 
1410	 9.73749652570413E-02 
1411	 0.099607971824676 
1412	 0.105092622309143 
1413	 0.111402529775553 
1414	 0.108914398179747 
1415	 0.110650002822418 
1416	 0.112050133597155 
1417	 0.11315391734188 
1418	 0.113368761560334 
1419	 0.11358930533285 
1420	 0.115211839724749 
1421	 0.118089145352761 
1422	 0.118493666226606 
1423	 0.117677369954492 
1424	 0.119084335992172 
1425	 0.119494634196874 
1426	 0.121152653207475 
1427	 0.12834404344562 
1428	 0.127601541756804 
1429	 0.121953019272723 
1430	 0.118868918067029 
1431	 0.110408016220715 
1432	 0.108535075928641 
1433	 0.113912743519838 
1434	 0.114504557974677 
1435	 0.114671817170936 
1436	 0.115088855967786 
1437	 0.112166288800658 
1438	 0.111385822943946 
1439	 0.115662894368154 
1440	 0.120403904431615 
1441	 0.123171526979522 
1442	 0.12439950206374 
1443	 0.121754368743666 
1444	 0.118328320990066 
1445	 0.118161029812776 
1446	 0.119130698322285 
1447	 0.119361964354772 
1448	 0.12128108900754 
1449	 0.121221955834143 
1450	 0.119470925420271 
1451	 0.118772033652398 
1452	 0.117743904817153 
1453	 0.118078382721923 
1454	 0.119311562804499 
1455	 0.119556522020455 
1456	 0.119949672934081 
1457	 0.120766842012589 
1458	 0.121122380806886 
1459	 0.121731617036956 
1460	 0.123969163870576 
1461	 0.124438302020495 
1462	 0.12346194084989 
1463	 0.123376972311731 
1464	 0.122644443065292 
1465	 0.122080170419448 
1466	 0.122077279708953 
1467	 0.122113967187796 
1468	 0.1216156719738 
1469	 0.122077102145666 
1470	 0.123133699159197 
1471	 0.124522627415657 
1472	 0.125374487970572 
1473	 0.125568823162567 
1474	 0.125416179294599 
1475	 0.124390845610135 
1476	 0.124396020310907 
1477	 0.124836879119632 
1478	 0.124509625738907 
1479	 0.12422193411227 
1480	 0.12384943892661 
1481	 0.122554618257679 
1482	 0.122529365752548 
1483	 0.123437754536795 
1484	 0.123722216651835 
1485	 0.123951932958735 
1486	 0.12428785592553 
1487	 0.124547236388182 
1488	 0.124840414886024 
1489	 0.125378169185876 
1490	 0.125659670313621 
1491	 0.125938369439905 
1492	 0.125826555010696 
1493	 0.125353579049198 
1494	 0.125140533216384 
1495	 0.125048591887837 
1496	 0.124557260456139 
1497	 0.123446744414549 
1498	 0.12330576595993 
1499	 0.123573788276334 
1500	 0.12347786800453 
1501	 0.123866919370881 
1502	 0.124248196528923 
1503	 0.124239016567093 
1504	 0.124166207392855 
1505	 0.124712901023431 
1506	 0.125083846769291 
1507	 0.125338386651811 
1508	 0.125551153232598 
1509	 0.125591384410872 
1510	 0.125634586707636 
1511	 0.125656630825098 
1512	 0.1255237946058 
1513	 0.125287404898551 
1514	 0.125186516449629 
1515	 0.12460163816332 
1516	 0.123168573051939 
1517	 0.12311465737632 
1518	 0.123568385477347 
1519	 0.123790086346617 
1520	 0.124905543116826 
1521	 0.125136283138864 
1522	 0.124227453716386 
1523	 0.124613602608779 
1524	 0.125792226414216 
1525	 0.126258082325803 
1526	 0.127458949030933 
1527	 0.127437715932599 
1528	 0.125753226588561 
1529	 0.125344261924175 
1530	 0.124998430139612 
1531	 0.124858153273707 
1532	 0.125650954859733 
1533	 0.125859237403659 
1534	 0.125473573188447 
1535	 0.125626895059067 
1536	 0.126259542772194 
1537	 0.126385676100768 
1538	 0.126621928911491 
1539	 0.126586150947744 
1540	 0.125790240503581 
1541	 0.125380768782988 
1542	 0.125017969945601 
1543	 0.124869924868478 
1544	 0.124854817327888 
1545	 0.125035830493899 
1546	 0.125747821055649 
1547	 0.126102353052196 
1548	 0.126366885103102 
1549	 0.126721164864895 
1550	 0.12668495279642 
1551	 0.126214352969893 
1552	 0.126101831251618 
1553	 0.12598537921068 
1554	 0.125849667766103 
1555	 0.125773583046377 
1556	 0.125752922742395 
1557	 0.125819092499963 
1558	 0.125540818250406 
1559	 0.125132936299174 
1560	 0.124919876227298 
1561	 0.124359854949027 
1562	 0.124330561951883 
1563	 0.124787777945655 
1564	 0.125096414877668 
1565	 0.12575262506216 
1566	 0.125721252436835 
1567	 0.125174647758971 
1568	 0.125253715924275 
1569	 0.125371233932241 
1570	 0.125196386370268 
1571	 0.1253125228628 
1572	 0.125328548660711 
1573	 0.124640990522493 
1574	 0.124574442886401 
1575	 0.125342931395808 
1576	 0.125486227368074 
1577	 0.125402342100359 
1578	 0.125244763129872 
1579	 0.124660311408051 
1580	 0.124544872417704 
1581	 0.124791702002214 
1582	 0.124670168578917 
1583	 0.124396548045835 
1584	 0.124481390998783 
1585	 0.124410968249814 
1586	 0.12454363920018 
1587	 0.125400207689674 
1588	 0.125688167287387 
1589	 0.125777402262318 
1590	 0.125670893921927 
1591	 0.124980254191274 
1592	 0.124797062844742 
1593	 0.125037486168047 
1594	 0.124660661247859 
1595	 0.123669249239119 
1596	 0.123589851188959 
1597	 0.12355803484262 
1598	 0.123704559930109 
1599	 0.125417419117902 
1600	 0.125952766686203 
1601	 0.125017886295477 
1602	 0.124979593073839 
1603	 0.124963012661717 
1604	 0.125259647255444 
1605	 0.125517635781634 
1606	 0.125813930593499 
1607	 0.125517506684622 
1608	 0.124943311113793 
1609	 0.124885768380442 
1610	 0.124950474202736 
1611	 0.125029349938585 
1612	 0.124624528897392 
1613	 0.124133113566013 
1614	 0.124821496788246 
1615	 0.124614100237981 
1616	 0.124763651789822 
1617	 0.125793616652962 
1618	 0.125035854183411 
1619	 0.125288269235109 
1620	 0.126303406480512 
1621	 0.126611186157659 
1622	 0.126906376448503 
1623	 0.126963198322838 
1624	 0.126596299152791 
1625	 0.126240087034107 
1626	 0.125535733607909 
1627	 0.125523247650713 
1628	 0.126065058878209 
1629	 0.125848491729154 
1630	 0.125561361644234 
1631	 0.12545222543192 
1632	 0.124477281055928 
1633	 0.124679908146474 
1634	 0.126251075248917 
1635	 0.126416988352254 
1636	 0.126156054568414 
1637	 0.126212827571845 
1638	 0.126052289554584 
1639	 0.125676347635935 
1640	 0.125560595496125 
1641	 0.124987417590935 
1642	 0.123269839282592 
1643	 0.122875271114968 
1644	 0.122999894392852 
1645	 0.123295486444312 
1646	 0.124458261004029 
1647	 0.124960282555864 
1648	 0.125336807429659 
1649	 0.125809229154138 
1650	 0.126100482708532 
1651	 0.126232752144988 
1652	 0.126276129115281 
1653	 0.126593349700336 
1654	 0.12715444093857 
1655	 0.127175588910852 
1656	 0.127130714854059 
1657	 0.126923572670596 
1658	 0.12594121346854 
1659	 0.125611376274857 
1660	 0.125654834636753 
1661	 0.125925064133851 
1662	 0.12656283898801 
1663	 0.126882618238464 
1664	 0.127636687847322 
1665	 0.127470906750303 
1666	 0.12631458674472 
1667	 0.12588753040349 
1668	 0.125543742686277 
1669	 0.125064709586462 
1670	 0.12446827876908 
1671	 0.124584182419772 
1672	 0.124958291902774 
1673	 0.124903192593432 
1674	 0.125409606982274 
1675	 0.125867604781882 
1676	 0.125430539851478 
1677	 0.125937847053079 
1678	 0.127874630674156 
1679	 0.127957259688285 
1680	 0.127380055820736 
1681	 0.127233862804505 
1682	 0.125956492623852 
1683	 0.125829943984895 
1684	 0.1269089447802 
1685	 0.126823053293176 
1686	 0.126198958783454 
1687	 0.125989397969817 
1688	 0.125823440853734 
1689	 0.125396853616662 
1690	 0.125090352688062 
1691	 0.124964145143455 
1692	 0.124258738423716 
1693	 0.124022620080986 
1694	 0.124456983338415 
1695	 0.124485252457616 
1696	 0.124358079084334 
1697	 0.124624218965752 
1698	 0.125073407634981 
1699	 0.125486323223571 
1700	 0.125964627917499 
1701	 0.126365574647985 
1702	 0.126865883491373 
1703	 0.12677907335575 
1704	 0.126830993239746 
1705	 0.126752109041985 
1706	 0.125709328818669 
1707	 0.125540290011534 
1708	 0.125566113062991 
1709	 0.125633645479248 
1710	 0.12666663952604 
1711	 0.126541301165275 
1712	 0.125808214291808 
1713	 0.125642132232228 
1714	 0.12455606282997 
1715	 0.124168954237222 
1716	 0.12473278457948 
1717	 0.125085221656617 
1718	 0.125843435936535 
1719	 0.125886900342274 
1720	 0.125771275108573 
1721	 0.126052610070604 
1722	 0.125554994750054 
1723	 0.125486874815413 
1724	 0.126439623876625 
1725	 0.125013381897827 
1726	 0.124543063758188 
1727	 0.12526763892473 
1728	 0.125841180712611 
1729	 0.125962534099519 
1730	 0.12606614329536 
1731	 0.126863134521852 
1732	 0.126287288851222 
1733	 0.1255860612308 
1734	 0.126258384668577 
1735	 0.125518296505954 
1736	 0.124988698786388 
1737	 0.125337553285832 
1738	 0.125408944660587 
1739	 0.124894853349958 
1740	 0.123627287123492 
1741	 0.122967554438459 
1742	 0.122473599871906 
1743	 0.121032441586176 
1744	 0.120357999798266 
1745	 0.120721619974677 
1746	 0.121068520088375 
1747	 0.122767450112749 
1748	 0.124545559941009 
1749	 0.124810319431709 
1750	 0.124248844361056 
1751	 0.123197318306369 
1752	 0.122654920277471 
1753	 0.122336586603312 
1754	 0.12203292116175 
1755	 0.121982902444483 
1756	 0.121551099672709 
1757	 0.121448771639962 
1758	 0.122512430646402 
1759	 0.124772482884257 
1760	 0.127246188286314 
1761	 0.129334483324567 
1762	 0.130594752371023 
1763	 0.128394913087117 
1764	 0.125250251427183 
1765	 0.124191869210793 
1766	 0.123457916187334 
1767	 0.124455670728006 
1768	 0.125634505011697 
1769	 0.125035060130629 
1770	 0.124904220921894 
1771	 0.125959997245376 
1772	 0.12758157655472 
1773	 0.127506304472361 
1774	 0.125179291789953 
1775	 0.122158715101771 
1776	 0.119539094172461 
1777	 0.120652851601041 
1778	 0.122705274548331 
1779	 0.123798107913008 
1780	 0.126838850502351 
1781	 0.128001679084726 
1782	 0.129719370237174 
1783	 0.132703390794574 
1784	 0.131290275039236 
1785	 0.128509820955972 
1786	 0.125160126551913 
1787	 0.122945696298734 
1788	 0.122991653598426 
1789	 0.124589717549769 
1790	 0.124150802768924 
1791	 0.119220525211645 
1792	 0.117982964017156 
1793	 0.117755802010208 
1794	 0.120314811948627 
1795	 0.12502213189883 
1796	 0.124483059447972 
1797	 0.125901195969389 
1798	 0.126840288613663 
1799	 0.12417821907637 
1800	 0.126438474433362 
1801	 0.138241684060706 
1802	 0.139055559953773 
1803	 0.130986525842817 
1804	 0.130032259163854 
1805	 0.126651944577913 
1806	 0.123432297560731 
1807	 0.125942030336676 
1808	 0.124554136230016 
1809	 0.114947734453926 
1810	 0.11402971353728 
1811	 0.114663537817378 
1812	 0.123138064150644 
1813	 0.128747504996291 
1814	 0.144948540691207 
1815	 0.148134032245696 
1816	 0.138275438619306 
1817	 0.131056054032304 
1818	 0.114723844880632 
1819	 7.74372150318243E-02 
1820	 0.062932614930516 
1821	 6.58954171475446E-02 
1822	 6.48368015146635E-02 
1823	 7.90406872583027E-02 
1824	 9.72757933262064E-02 
1825	 0.14793657479738 
1826	 0.163528954814142 
1827	 0.193808464706208 
1828	 0.155774231456474 
1829	-3.09995708442377E-02 
1830	-0.131534971828774 
1831	-0.286117839505109 
1832	-8.30405600341307E-02 
1833	-0.161798224474015 
1834	-0.553089252991 
1835	-0.835479625459142 
1836	-1.25751052378653 
1837	-1.3800388832733 
1838	-0.239198619390037 
1839	 0.485935820826061 
1840	 0.807902221922388 
1841	 1.36172763678127 
1842	 1.26219117130063 
1843	 0.772622142950542 
1844	 0.720339296068171 
1845	 0.762543594638694 
1846	 0.612253931633716 
1847	 0.452097707650509 
1848	 0.231170666502289 
1849	 0.108786299635171 
1850	-0.26268084898643 
1851	-0.374885425760715 
1852	-0.195767407274424 
1853	-0.247748273451688 
1854	-0.292314099376636 
1855	-0.221112326498232 
1856	-4.36248052418428E-02 
1857	-0.37359236650946 
1858	-0.161108376138643 
1859	 5.13991164155794E-03 
1860	-3.16631269359455E-02 
1861	 0.237634251597745 
1862	 0.312197659257978 
1863	 0.288288015896281 
1864	 0.340840610393486 
1865	 0.423740582342318 
1866	 0.577063338214042 
1867	 0.743543346102967 
1868	 0.8411821090595 
1869	 0.410473159748379 
1870	-0.256872056469895 
1871	-0.596593913199069 
1872	-0.816243094537086 
1873	-0.880904365923628 
1874	-0.528751559977785 
1875	-0.283540919826548 
1876	-0.112153035875271 
1877	-8.85043300513764E-02 
1878	-3.28119318371474E-03 
1879	 6.35733020795895E-02 
1880	-9.22081132628997E-02 
1881	-0.164520850591753 
1882	-0.151292347612539 
1883	-0.144753680559367 
1884	-9.08114598348891E-02 
1885	 2.85521968170871E-02 
1886	 9.00738056625601E-02 
1887	 6.58690092896139E-02 
1888	 2.82372698113248E-02 
1889	-2.37626877955197E-02 
1890	-0.146652403827095 
1891	-0.232870985392533 
1892	-0.206399241245357 
1893	-7.88320118180673E-02 
1894	 6.62913746496027E-02 
1895	 0.132178014187641 
1896	 0.260315038314747 
1897	 0.32560655505203 
1898	 0.284087458893346 
1899	 0.227720780319459 
1900	 0.237167413324816 
1901	 0.325254791589728 
1902	 0.399264666474369 
1903	 0.141565582228946 
1904	 0.231978994068539 
1905	 0.394334327019863 
1906	 0.378617048013474 
1907	 0.314028854202785 
1908	 0.399160187056332 
1909	 0.331241969076486 
1910	 6.07239095935366E-02 
1911	-0.160568576103283 
1912	-0.274635838012508 
1913	-0.134086142509066 
1914	 1.87934354371857E-02 
1915	 6.51579512315148E-02 
1916	 3.74685767341177E-02 
1917	 3.82284421999748E-02 
1918	-5.18153185342202E-04 
1919	-1.64212283290639E-03 
1920	 6.29485229369133E-02 
1921	 0.134711135913806 
1922	 0.186433154902277 
1923	 0.198353950763902 
1924	 0.169434631894406 
1925	 0.147095404791426 
1926	 0.116991093664325 
1927	 0.109146147945667 
1928	 0.113053807804716 
1929	 0.141617316888877 
1930	 0.15650518518375 
1931	 0.156855287081255 
1932	 0.142204783448233 
1933	 0.147987714317285 
1934	 0.139187780227471 
1935	 0.123422661193472 
1936	 0.123954189191184 
1937	 0.101732490337174 
1938	 0.104478145764649 
1939	 0.130963190236837 
1940	 0.134356845482538 
1941	 0.132843745677001 
1942	 0.128938664516106 
1943	 0.121676194943087 
1944	 0.115391738256331 
1945	 0.113373554581981 
1946	 0.113651609117802 
1947	 0.11525943258312 
1948	 0.112145199065646 
1949	 0.106919389163984 
1950	 0.111188113364934 
1951	 0.111085569904928 
1952	 0.110539342079549 
1953	 0.105758777016311 
1954	 0.104729195031892 
1955	 9.41869914962761E-02 
1956	 9.19523155485235E-02 
1957	 0.103059447694351 
1958	 0.110382038984494 
1959	 0.11348160773744 
1960	 0.118279077056996 
1961	 0.119232066051185 
1962	 0.117887391805893 
1963	 0.114407135229526 
1964	 0.115012239369589 
1965	 0.114292911498163 
1966	 0.115609995058526 
1967	 0.119367094319609 
1968	 0.121663125628534 
1969	 0.122645673214746 
1970	 0.122510991761721 
1971	 0.121923591567985 
1972	 0.12082593024284 
1973	 0.121321177372126 
1974	 0.12344304923876 
1975	 0.123043137812786 
1976	 0.122163567052786 
1977	 0.122198494937789 
1978	 0.119303927584065 
1979	 0.117925106406651 
1980	 0.118018421269091 
1981	 0.11783930222681 
1982	 0.118066740719527 
1983	 0.118116895812911 
1984	 0.118989443645495 
1985	 0.119515827896219 
1986	 0.119531732806021 
1987	 0.120407199104724 
1988	 0.120200768816593 
1989	 0.11857729412024 
1990	 0.116338621352897 
1991	 0.11724027441056 
1992	 0.117381875118139 
1993	 0.117010004400124 
1994	 0.119307762364412 
1995	 0.120314596832273 
1996	 0.119606609793686 
1997	 0.118957837768761 
1998	 0.11702005531088 
1999	 0.115201553820833 
2000	 0.109942948329906 
2001	 0.108120351101313 
2002	 0.11069612658557 
2003	 0.119813997575621 
2004	 0.128585205472571 
2005	 0.136348856211916 
2006	 0.137539395015844 
2007	 0.135663331655134 
2008	 0.130292692324498 
2009	 0.124227554853668 
2010	 0.121025053283847 
2011	 0.116540156129527 
2012	 0.111280248992598 
2013	 0.103305940778862 
2014	 0.103820137591645 
2015	 0.104610474739856 
2016	 0.111527775112011 
2017	 0.123336460163915 
2018	 0.130115170599188 
2019	 0.13455752205265 
2020	 0.134053140477501 
2021	 0.131438076951599 
2022	 0.131132545261054 
2023	 0.129851539734189 
2024	 0.126087119628956 
2025	 0.125261281285845 
2026	 0.126645896392561 
2027	 0.126183527086734 
2028	 0.12466485068748 
2029	 0.125680019221027 
2030	 0.125837189220391 
2031	 0.123473479107189 
2032	 0.123682973357362 
2033	 0.123870731544184 
2034	 0.123406479278989 
2035	 0.125114163494642 
2036	 0.125228123784363 
2037	 0.124166123759641 
2038	 0.124615956672617 
2039	 0.125535950657464 
2040	 0.125416449459166 
2041	 0.125652873686617 
2042	 0.126311229632907 
2043	 0.126603412573846 
2044	 0.12658689123141 
2045	 0.12669224966407 
2046	 0.126126084142112 
2047	 0.126405656140291 
2048	 0.12544198518083 
2049	 0.125415806762871 
2050	 0.126834823270905 
2051	 0.126274632913877 
2052	 0.121910329438474 
2053	 0.121230197792768 
2054	 0.122215063705208 
2055	 0.122548654753125 
2056	 0.123996141920699 
2057	 0.125567289259329 
2058	 0.126471853385099 
2059	 0.126747943252364 
2060	 0.125914880115378 
2061	 0.126829921672042 
2062	 0.127937152754843 
2063	 0.126699085260169 
2064	 0.12674848654417 
2065	 0.12847250490564 
2066	 0.127681413655043 
2067	 0.125391099744182 
2068	 0.124767147805526 
2069	 0.123923628346533 
2070	 0.123350418127031 
2071	 0.123384438261116 
2072	 0.123062174966031 
2073	 0.124573025578547 
2074	 0.123870245841736 
2075	 0.124471974296376 
2076	 0.126968956704153 
2077	 0.127042764335441 
2078	 0.126536105589723 
2079	 0.126246458836064 
2080	 0.125252704982017 
2081	 0.125436575477393 
2082	 0.126154424339065 
2083	 0.126744804290141 
2084	 0.128518723748609 
2085	 0.128408461333312 
2086	 0.126805009191886 
2087	 0.126284988739748 
2088	 0.125471826573944 
2089	 0.124621726637617 
2090	 0.124757951601541 
2091	 0.125406025829232 
2092	 0.123913552280083 
2093	 0.122787202624993 
2094	 0.12256173305622 
2095	 0.122005771465098 
2096	 0.122049100880102 
2097	 0.123657170081539 
2098	 0.124075201377135 
2099	 0.123416983876212 
2100	 0.123880859877883 
2101	 0.124704727107118 
2102	 0.126299022625262 
2103	 0.126734612121516 
2104	 0.12668543098105 
2105	 0.125552854249059 
2106	 0.125438768763343 
2107	 0.12726240631056 
2108	 0.128891063931814 
2109	 0.129843856884276 
2110	 0.129097359641273 
2111	 0.128642243138928 
2112	 0.126790902481456 
2113	 0.126062714837947 
2114	 0.125693893783958 
2115	 0.125656747781357 
2116	 0.125864102360793 
2117	 0.125884099846044 
2118	 0.126076621358072 
2119	 0.12718814875408 
2120	 0.126617153896601 
2121	 0.126013424760786 
2122	 0.125592566134491 
2123	 0.124653721264502 
2124	 0.124445859800816 
2125	 0.123375768618343 
2126	 0.123042609953076 
2127	 0.122899673115017 
2128	 0.122562275016573 
2129	 0.122269850360123 
2130	 0.122916960672037 
2131	 0.123545880471469 
2132	 0.124525220702624 
2133	 0.12775410100418 
2134	 0.128569186914639 
2135	 0.128490222619969 
2136	 0.127396345149582 
2137	 0.125361218913108 
2138	 0.123146152779506 
2139	 0.122187518471944 
2140	 0.121801992275815 
2141	 0.122496607120959 
2142	 0.123190436809089 
2143	 0.122907513681574 
2144	 0.122355832135263 
2145	 0.122577789480873 
2146	 0.123321053858873 
2147	 0.123269299288214 
2148	 0.12251473881999 
2149	 0.123552486851123 
2150	 0.125079866342188 
2151	 0.126310284900088 
2152	 0.128777320805694 
2153	 0.131808308752693 
2154	 0.131479753883068 
2155	 0.130097448177458 
2156	 0.128734630770716 
2157	 0.125774723910655 
2158	 0.123147990328702 
2159	 0.122498799651138 
2160	 0.122817183170786 
2161	 0.124477254496414 
2162	 0.12858698999116 
2163	 0.131147866859949 
2164	 0.13121282688266 
2165	 0.128739254306813 
2166	 0.128128547153005 
2167	 0.12577451225052 
2168	 0.123914799925986 
2169	 0.123111444152215 
2170	 0.121930212080238 
2171	 0.119427461943634 
2172	 0.118557414088395 
2173	 0.118555293484927 
2174	 0.120342989242538 
2175	 0.1213376739408 
2176	 0.122521623606168 
2177	 0.124271180228875 
2178	 0.124197737724161 
2179	 0.123100985901029 
2180	 0.12020151724024 
2181	 0.117669827154261 
2182	 0.11637902427938 
2183	 0.115428787756487 
2184	 0.116377531341095 
2185	 0.116166397324457 
2186	 0.115694017652901 
2187	 0.115143753410077 
2188	 0.113217806031115 
2189	 0.113522097115441 
2190	 0.115134603682624 
2191	 0.115842944645185 
2192	 0.116947526171323 
2193	 0.119615744733987 
2194	 0.120152717311319 
2195	 0.12122308584864 
2196	 0.123918367387908 
2197	 0.122992450895695 
2198	 0.119552378431952 
2199	 0.118259384484122 
2200	 0.117623645132208 
2201	 0.117538604978043 
2202	 0.120523803594575 
2203	 0.123356526249149 
2204	 0.123930178496578 
2205	 0.122625150533071 
2206	 0.122537599565036 
2207	 0.120847366714983 
2208	 0.120805658960666 
2209	 0.122784956550943 
2210	 0.122391269675888 
2211	 0.122680841592199 
2212	 0.121189460971102 
2213	 0.116863718916478 
2214	 0.113339250110583 
2215	 0.112263880252912 
2216	 0.110480182891278 
2217	 0.113663601616938 
2218	 0.117482207755761 
2219	 0.11923175308078 
2220	 0.121427828728393 
2221	 0.121102614633328 
2222	 0.121331268323512 
2223	 0.12235069092115 
2224	 0.121552067178764 
2225	 0.121728223808805 
2226	 0.120044963511099 
2227	 0.118690547765325 
2228	 0.117320648366644 
2229	 0.116445464772868 
2230	 0.115215176908834 
2231	 0.11526059176629 
2232	 0.115446576783131 
2233	 0.115749265849823 
2234	 0.118402250136136 
2235	 0.117730557060196 
2236	 0.11353745186776 
2237	 0.114226145343488 
2238	 0.116257600348711 
2239	 0.116737002070784 
2240	 0.121637129093706 
2241	 0.125987604591921 
2242	 0.125096409096009 
2243	 0.123727446385824 
2244	 0.123507922504202 
2245	 0.123715331945042 
2246	 0.123384865209375 
2247	 0.122813576667589 
2248	 0.121727086764428 
2249	 0.118372546782601 
2250	 0.116135989877281 
2251	 0.117342103126965 
2252	 0.118366706839095 
2253	 0.118606466265708 
2254	 0.119655246792224 
2255	 0.121522640153737 
2256	 0.122253677379135 
2257	 0.12360153225504 
2258	 0.12389377333166 
2259	 0.122861073221081 
2260	 0.12159070266834 
2261	 0.118832599667823 
2262	 0.117717542184449 
2263	 0.1163068325315 
2264	 0.116368908278489 
2265	 0.118205400379174 
2266	 0.119935158531947 
2267	 0.123426389022199 
2268	 0.123764308024694 
2269	 0.120353597087677 
2270	 0.119275792825789 
2271	 0.116634321079662 
2272	 0.115001137636136 
2273	 0.116975370472611 
2274	 0.116066482264114 
2275	 0.115126559925224 
2276	 0.115877980441955 
2277	 0.116172529493358 
2278	 0.119198441202475 
2279	 0.121029176673397 
2280	 0.119847921363676 
2281	 0.11976249488705 
2282	 0.119313992969966 
2283	 0.11763861787094 
2284	 0.118387258865233 
2285	 0.11725116403566 
2286	 0.114100457985064 
2287	 0.114059240755236 
2288	 0.114667255675303 
2289	 0.114751723350792 
2290	 0.117570632395069 
2291	 0.117803761627071 
2292	 0.11494383878456 
2293	 0.114713167236602 
2294	 0.115147704858728 
2295	 0.116314778246885 
2296	 0.121607590426391 
2297	 0.121093364542686 
2298	 0.116360490813011 
2299	 0.11453726811015 
2300	 0.110158811757249 
2301	 0.107326162532287 
2302	 0.110191857175934 
2303	 0.111955698909224 
2304	 0.115541871734558 
2305	 0.119538611212944 
2306	 0.121957385515431 
2307	 0.123372068464032 
2308	 0.115339015057866 
2309	 0.106590837000707 
2310	 0.100286038594483 
2311	 9.53749304212443E-02 
2312	 0.101373888774382 
2313	 0.106250607129876 
2314	 0.109333590359056 
2315	 0.112522442233907 
2316	 0.108805308475594 
2317	 0.10553613406406 
2318	 0.103802709143715 
2319	 0.104059249055481 
2320	 0.10546472087702 
2321	 0.108306868366244 
2322	 0.107546765981786 
2323	 0.103928349842837 
2324	 0.101824805982471 
2325	 0.101213501314534 
2326	 0.103058161439452 
2327	 0.108451480404257 
2328	 0.111500702387955 
2329	 0.117346265777097 
2330	 0.118079824945673 
2331	 0.115142000250885 
2332	 0.114620929637511 
2333	 0.113289945442112 
2334	 0.109660031791961 
2335	 0.103240598604873 
2336	 0.103092384444101 
2337	 0.104459940063202 
2338	 0.105019772239159 
2339	 0.113927837371196 
2340	 0.114224224023033 
2341	 0.104811482115627 
2342	 0.100040973453783 
2343	 9.33464748578987E-02 
2344	 9.15239613537237E-02 
2345	 9.18458355473165E-02 
2346	 9.59271894478173E-02 
2347	 0.104577926433118 
2348	 0.110722532917844 
2349	 0.113824284086116 
2350	 0.118876740456043 
2351	 0.123251558888435 
2352	 0.118136290792067 
2353	 0.111965074129495 
2354	 0.109190148352023 
2355	 0.103452794094093 
2356	 0.103766162469352 
2357	 0.107360729052165 
2358	 0.11233901566785 
2359	 0.115780358179632 
2360	 0.115133266155977 
2361	 0.119642658157232 
2362	 0.118429348168998 
2363	 0.107829623331285 
2364	 0.10095204504255 
2365	 9.25598693998276E-02 
2366	 8.30517854995868E-02 
2367	 8.28842636946462E-02 
2368	 8.95739577149469E-02 
2369	 9.77912081160096E-02 
2370	 0.110729250949781 
2371	 0.125663489762392 
2372	 0.127944648964877 
2373	 0.127667695404371 
2374	 0.1236607054209 
2375	 0.110403221156122 
2376	 0.109956778985879 
2377	 0.115702775237606 
2378	 0.114259162464018 
2379	 0.119364927649037 
2380	 0.123987170964207 
2381	 0.132191735980461 
2382	 0.139195091331384 
2383	 0.132328267586438 
2384	 0.134907950126471 
2385	 0.128350846071022 
2386	 0.118089882839108 
2387	 0.124921680979394 
2388	 0.125269495576012 
2389	 0.125970638055359 
2390	 0.135132302817046 
2391	 0.136841757970159 
2392	 0.138527138896842 
2393	 0.145240440376842 
2394	 0.142320489457854 
2395	 0.145046627582395 
2396	 0.141295794135339 
2397	 0.122055867348018 
2398	 0.119874025924165 
2399	 0.116848814104619 
2400	 0.110653061660217 
2401	 0.114843428998414 
2402	 0.11407126363634 
2403	 0.10710646960167 
2404	 0.11358466056577 
2405	 0.136834463065773 
2406	 0.136906247694749 
2407	 0.122625557627568 
2408	 0.116977788701365 
2409	 0.107108382691023 
2410	 0.102497455681615 
2411	 0.120080364892427 
2412	 0.12821280220441 
2413	 0.122023697929394 
2414	 0.127579903212478 
2415	 0.131577639149531 
2416	 0.147373769471652 
2417	 0.130911828804845 
2418	 0.10001276107367 
2419	 9.53679643060286E-02 
2420	 8.89060802742952E-02 
2421	 0.106815598559126 
2422	 0.137086685097833 
2423	 0.142771791945164 
2424	 0.128373485388382 
2425	 0.11435864112248 
2426	 0.103093650721805 
2427	 9.59476074806012E-02 
2428	 9.98219100776421E-02 
2429	 0.112020166598427 
2430	 0.113383338304792 
2431	 0.114324650456637 
2432	 0.117867901426768 
2433	 0.103954420409886 
2434	 8.89435879961348E-02 
2435	 7.17635118110058E-02 
2436	 7.28278759083243E-02 
2437	 8.42439885386714E-02 
2438	 0.076006125927974 
2439	 7.70570169252677E-02 
2440	 7.09831656183283E-02 
2441	 5.67818139150291E-02 
2442	 7.95355108182772E-02 
2443	 0.104625550280287 
2444	 0.137518431422231 
2445	 0.179884399896369 
2446	 0.152212679278546 
2447	 0.138195846436172 
2448	 0.134817540167199 
2449	 6.06684888825802E-02 
2450	 6.17744707952445E-02 
2451	 6.34054031316363E-02 
2452	-8.25505139930665E-03 
2453	 3.02799552485159E-02 
2454	 7.49829805034488E-02 
2455	 9.06145783217384E-02 
2456	 0.145125834060961 
2457	 0.175018517455155 
2458	 0.19030067640019 
2459	 0.219738803038096 
2460	 0.21751308771796 
2461	 0.187213540128328 
2462	 0.17674442766442 
2463	 0.154753045232269 
2464	 0.131518164713206 
2465	 0.128417046123681 
2466	 0.102319386431399 
2467	 7.93171663360647E-02 
2468	 7.54959156095751E-02 
2469	 8.48009558025495E-02 
2470	 0.104128901784312 
2471	 6.73264009646525E-02 
2472	 0.033784556528076 
2473	 3.05207742400388E-03 
2474	-2.29199002545639E-02 
2475	 3.32057762817605E-02 
2476	 5.99690976839045E-02 
2477	 0.11545225999492 
2478	 0.149857292636954 
2479	 0.223675740130463 
2480	 0.230364050600555 
2481	 6.39627662119204E-02 
2482	-2.39238272593383E-02 
2483	-0.173096595909612 
2484	-0.282612507389765 
2485	-0.166889137935097 
2486	-0.128698066041577 
2487	-0.14046854278918 
2488	-0.132126024617909 
2489	-0.107581674603967 
2490	-0.128073108219574 
2491	-0.141195592189743 
2492	-0.135003080879342 
2493	-0.205228788482276 
2494	-6.28859163192909E-02 
2495	 0.11336173926877 
2496	 0.212833624440476 
2497	 0.370271925260628 
2498	 0.370869229603421 
2499	 0.282279920571298 
2500	 0.255905000597592 
