
Text conversion of header file \h820\optphotolab\Drones\DJI__Mavic_3M\viikki-field_calibration__20240521\sky_irrad\irrad_sky__00073.asd
 -------------------------------------------------------------
                                                                                                                                                            
The instrument number was  18875/1
New ASD spectrum file: Program version = 6.04 file version = 7.00
Spectrum saved: 05/21/2024 at 11:33:07
VNIR integration time : 136
VNIR channel 1 wavelength = 350 wavelength step = 1
There was one sample per data value
xmin = 350 xmax= 2500
ymin= 0 ymax= 2.5
The instrument digitizes spectral values to 16 bits
SWIR1 gain was 16 offset was 2051
SWIR2 gain was 16 offset was 2070
Join between VNIR and SWIR1 was 1000 nm
Join between SWIR1 and SWIR2 was 1800 nm
VNIR dark signal subtracted
100 dark measurements taken Tue May 21 11:27:15 2024
DCC value was 0
Data is not compared to a white reference
There was a remote cosine receptor attached
Spectrum file is raw data with embedded reference
GPS-Latitude is S0
GPS-Longitude is E0
GPS-Altitude is 0
GPS-UTC is 00:00:00

Smart Detector
Serial#  0
Signal (A)  0.000E00
Dark (A)  0.000E00
Ref (A)  0.000E00
Status  0 - Uninitialized
Gain  E-4
Averaging  0
Temp (C)  0.0
Humid (%)  0.0

Wavelength	rad_sky-00073.asd
350	 0.219269418855826 
351	 0.215215995270273 
352	 0.213627983394367 
353	 0.220254134692977 
354	 0.229124156320284 
355	 0.232602668821376 
356	 0.241569380432439 
357	 0.244830849308798 
358	 0.24476563358066 
359	 0.25526314201505 
360	 0.263473886245869 
361	 0.267522108444222 
362	 0.2708359375566 
363	 0.283679771699836 
364	 0.295584335141166 
365	 0.304397195769174 
366	 0.312253315703107 
367	 0.318165767913694 
368	 0.324841479533152 
369	 0.332406414810529 
370	 0.337197820786649 
371	 0.338112028347683 
372	 0.338627871330409 
373	 0.341606785996164 
374	 0.343091656960495 
375	 0.344372770962462 
376	 0.346331812581532 
377	 0.349274077541635 
378	 0.350912223690004 
379	 0.351623041971764 
380	 0.3518850593295 
381	 0.351674512792544 
382	 0.349100135386891 
383	 0.344696080725123 
384	 0.340230169070412 
385	 0.337206343882715 
386	 0.339825022802078 
387	 0.347834062367269 
388	 0.355569342472946 
389	 0.363649431855183 
390	 0.371164550335681 
391	 0.377212129085477 
392	 0.381865463777259 
393	 0.385458424118888 
394	 0.390564186275641 
395	 0.400960323166096 
396	 0.416621217704873 
397	 0.436789517604764 
398	 0.460947409870457 
399	 0.490172438658883 
400	 0.520733976439655 
401	 0.548369420181105 
402	 0.569302808452287 
403	 0.58716546056755 
404	 0.599431006833122 
405	 0.605780026286866 
406	 0.608722449908554 
407	 0.611055108256015 
408	 0.614993471135281 
409	 0.621292464198359 
410	 0.627832451293888 
411	 0.633336976303045 
412	 0.639465422565322 
413	 0.648713263304402 
414	 0.654505974339915 
415	 0.656877827571869 
416	 0.657776422406182 
417	 0.660829620009454 
418	 0.662673888467419 
419	 0.662786466929093 
420	 0.661818481824017 
421	 0.661256731474029 
422	 0.660364841563692 
423	 0.658982264007362 
424	 0.657469421246082 
425	 0.651865336162902 
426	 0.643972615944587 
427	 0.636152458009388 
428	 0.628463983952591 
429	 0.624816773756521 
430	 0.625069631066009 
431	 0.627416265210312 
432	 0.636813042119169 
433	 0.652008476239846 
434	 0.670507492235802 
435	 0.689542310944041 
436	 0.705072373788467 
437	 0.716888216867093 
438	 0.726617034727331 
439	 0.735843968649447 
440	 0.7455323090654 
441	 0.7568385517515 
442	 0.771106760519614 
443	 0.78434482044999 
444	 0.797555442608075 
445	 0.811454655617556 
446	 0.821713346602161 
447	 0.831615659812569 
448	 0.843051357363724 
449	 0.856468351554557 
450	 0.867820810475899 
451	 0.875699598950222 
452	 0.880093224515294 
453	 0.882441461170143 
454	 0.882703270191025 
455	 0.882710956419738 
456	 0.884805083321035 
457	 0.890056749876497 
458	 0.896429614994778 
459	 0.902455247229236 
460	 0.907686374965255 
461	 0.909880592317999 
462	 0.911019356177042 
463	 0.912935105418689 
464	 0.913159253936611 
465	 0.910247986550795 
466	 0.905309412916153 
467	 0.901322015912689 
468	 0.898838504107657 
469	 0.89849962685026 
470	 0.900355691910778 
471	 0.903521867187152 
472	 0.907323452171454 
473	 0.911719362064415 
474	 0.916789918011831 
475	 0.921159576215413 
476	 0.92448496029185 
477	 0.927304180929265 
478	 0.931169545984529 
479	 0.936205009104206 
480	 0.941093369092134 
481	 0.943663775570122 
482	 0.941059675478602 
483	 0.932022928838109 
484	 0.916819439833085 
485	 0.897481820472581 
486	 0.880072681473449 
487	 0.868446599711316 
488	 0.865723029609428 
489	 0.875802886631555 
490	 0.890519562071584 
491	 0.902967517088564 
492	 0.90812056582259 
493	 0.909834697506693 
494	 0.911813094454914 
495	 0.915805244341694 
496	 0.920885060950588 
497	 0.920978458523839 
498	 0.915938514616422 
499	 0.907902513814336 
500	 0.898267278216683 
501	 0.890161359963934 
502	 0.885220225412756 
503	 0.883717466222535 
504	 0.88803714905965 
505	 0.894767699725802 
506	 0.900225533602389 
507	 0.90369582952419 
508	 0.905134757440682 
509	 0.904709508869646 
510	 0.902933548026977 
511	 0.901777756915227 
512	 0.898956031570863 
513	 0.892654661977582 
514	 0.882885598118527 
515	 0.868504642270932 
516	 0.851368767188186 
517	 0.835290447062335 
518	 0.825226385783094 
519	 0.826258198503497 
520	 0.838574586306187 
521	 0.857071642669332 
522	 0.871727433866453 
523	 0.881056344866289 
524	 0.885520419065576 
525	 0.882920245386738 
526	 0.877874009679034 
527	 0.873112346149402 
528	 0.870727080289403 
529	 0.880391190886686 
530	 0.895134082476244 
531	 0.905790138365153 
532	 0.902927305728658 
533	 0.897691256327501 
534	 0.894750447319302 
535	 0.895822646763476 
536	 0.900878668348214 
537	 0.90278054495757 
538	 0.898499043537791 
539	 0.890550561909987 
540	 0.883120317854036 
541	 0.877902715966893 
542	 0.87615194317986 
543	 0.881345065008536 
544	 0.887644632232518 
545	 0.891795681738408 
546	 0.8929033883787 
547	 0.891709186457576 
548	 0.890142836397796 
549	 0.889706198667529 
550	 0.890753970640618 
551	 0.89189139722004 
552	 0.892365331636472 
553	 0.892066914354386 
554	 0.893077855032838 
555	 0.893464453726274 
556	 0.891057690637972 
557	 0.883848800579662 
558	 0.873852239451218 
559	 0.865407686557957 
560	 0.862407039769675 
561	 0.864628303300881 
562	 0.869074520723985 
563	 0.872694918396282 
564	 0.872754716235529 
565	 0.870450534247625 
566	 0.867333857056889 
567	 0.864822147267028 
568	 0.864216605022353 
569	 0.861518324186078 
570	 0.856419749999127 
571	 0.851252768877767 
572	 0.851813232386239 
573	 0.856232703146575 
574	 0.861020156954634 
575	 0.861816673281919 
576	 0.859076611971189 
577	 0.856105722686997 
578	 0.856032981365804 
579	 0.856942392703496 
580	 0.85993895519524 
581	 0.865857368875468 
582	 0.874905167196933 
583	 0.881730396876119 
584	 0.884103628448652 
585	 0.881339738227387 
586	 0.874200098741421 
587	 0.866714801407583 
588	 0.855539156736396 
589	 0.835662203930881 
590	 0.818651023965167 
591	 0.818047901485901 
592	 0.833468865055468 
593	 0.844165840493849 
594	 0.847068761613288 
595	 0.845720387422816 
596	 0.845696720458122 
597	 0.847571772689443 
598	 0.847858639280335 
599	 0.845678981802994 
600	 0.842681487471493 
601	 0.839218463683275 
602	 0.836789373794597 
603	 0.837206689093906 
604	 0.843565643090183 
605	 0.848529286783302 
606	 0.849524773990159 
607	 0.846931908368256 
608	 0.843300973727332 
609	 0.838800768630342 
610	 0.83416088957498 
611	 0.831252174784946 
612	 0.829542382076826 
613	 0.82705567481616 
614	 0.822426560514196 
615	 0.818433457830118 
616	 0.813798012946783 
617	 0.810367344830332 
618	 0.812390993411588 
619	 0.820356809431929 
620	 0.827913044263344 
621	 0.830072949915075 
622	 0.827394095282038 
623	 0.821510595702048 
624	 0.814209477381929 
625	 0.807513792741291 
626	 0.803967748606037 
627	 0.802087804140945 
628	 0.799716749302341 
629	 0.794400900633779 
630	 0.791614329576115 
631	 0.791414689968894 
632	 0.792749158134331 
633	 0.796316738754341 
634	 0.800359957925723 
635	 0.803408463571389 
636	 0.804682956982976 
637	 0.807784362467872 
638	 0.811780838506285 
639	 0.814037922134932 
640	 0.809799263289479 
641	 0.804229946293053 
642	 0.801103878559142 
643	 0.80239838998215 
644	 0.804272137915772 
645	 0.803451180611675 
646	 0.799021332875931 
647	 0.792567331562674 
648	 0.787038420550204 
649	 0.781823604847099 
650	 0.777484490639408 
651	 0.780110489433691 
652	 0.785027240701989 
653	 0.788680872738581 
654	 0.787139826349538 
655	 0.771970844291599 
656	 0.741981444502463 
657	 0.71357842029848 
658	 0.724893924724855 
659	 0.753619906230007 
660	 0.778229466803576 
661	 0.785343450478446 
662	 0.790498185738987 
663	 0.791472995901615 
664	 0.789474151463041 
665	 0.78798357583403 
666	 0.788243648169672 
667	 0.787975381409831 
668	 0.786424573861956 
669	 0.786716701357211 
670	 0.785997785441424 
671	 0.783109841034964 
672	 0.778547569622222 
673	 0.777127507343466 
674	 0.777257836543648 
675	 0.777331497208832 
676	 0.776162722123954 
677	 0.77560392850146 
678	 0.775246114262944 
679	 0.774455271450987 
680	 0.773028163781624 
681	 0.771395783117481 
682	 0.769720928436346 
683	 0.767645422339729 
684	 0.763435844571303 
685	 0.755551673123147 
686	 0.734718816582329 
687	 0.684801529136832 
688	 0.6371700133344 
689	 0.619817821480731 
690	 0.640755225453596 
691	 0.661686768965198 
692	 0.682047212548307 
693	 0.697199713786078 
694	 0.703134268252276 
695	 0.70482001859753 
696	 0.70937080952246 
697	 0.717752996839605 
698	 0.723081794996985 
699	 0.720642333977009 
700	 0.713544528534212 
701	 0.706690509411085 
702	 0.702534199727902 
703	 0.703204922840881 
704	 0.708171594326529 
705	 0.714674472739169 
706	 0.7174217437128 
707	 0.718009139888235 
708	 0.718036754091235 
709	 0.717839939308678 
710	 0.717678777798243 
711	 0.71710744442747 
712	 0.715526978446861 
713	 0.712553634194519 
714	 0.709618705433172 
715	 0.704355985398589 
716	 0.691435436130081 
717	 0.662215898795714 
718	 0.622622614031611 
719	 0.58579415080805 
720	 0.571577035788668 
721	 0.586563946400487 
722	 0.614825218251772 
723	 0.633729844765599 
724	 0.622655460725769 
725	 0.608072091018908 
726	 0.602106446072437 
727	 0.605185980722973 
728	 0.605883204293101 
729	 0.60552907313017 
730	 0.60721032500447 
731	 0.614051407847105 
732	 0.625942931216801 
733	 0.641556375934579 
734	 0.65749293485211 
735	 0.66590489386122 
736	 0.667283703149667 
737	 0.665619120390643 
738	 0.666085985625518 
739	 0.664902068092506 
740	 0.663546817264434 
741	 0.66326484935225 
742	 0.664288494192934 
743	 0.667564651768244 
744	 0.671308698871507 
745	 0.673649243307049 
746	 0.674517438766189 
747	 0.674991751540962 
748	 0.674588844044885 
749	 0.672245462566438 
750	 0.66858107111911 
751	 0.665517695167059 
752	 0.664027568217501 
753	 0.663824505975281 
754	 0.664477313767341 
755	 0.664475653798258 
756	 0.662465588394767 
757	 0.660203194900271 
758	 0.643672978472151 
759	 0.579658688296485 
760	 0.447386264112923 
761	 0.314783175188185 
762	 0.254888351181454 
763	 0.27098788590379 
764	 0.303031646209658 
765	 0.349574904938089 
766	 0.412857270760225 
767	 0.487333469662182 
768	 0.549937172889053 
769	 0.592723565829362 
770	 0.616747586378194 
771	 0.628164111446407 
772	 0.633675708223782 
773	 0.636075402595816 
774	 0.636881449616744 
775	 0.636675102020378 
776	 0.636804491314203 
777	 0.636840511061257 
778	 0.636189068174996 
779	 0.634413471735537 
780	 0.633344520980521 
781	 0.633160385998072 
782	 0.633252345645311 
783	 0.632225309023977 
784	 0.630389808398997 
785	 0.628600427632033 
786	 0.627516891003631 
787	 0.62518497014464 
788	 0.621503609770414 
789	 0.616767689937991 
790	 0.611582232659511 
791	 0.606973167443318 
792	 0.602918686957593 
793	 0.599438604796592 
794	 0.597009221271926 
795	 0.596389599193078 
796	 0.59735846505963 
797	 0.599126480127532 
798	 0.600600386418756 
799	 0.600222079329128 
800	 0.597718182757286 
801	 0.594010686918829 
802	 0.591643605272129 
803	 0.589991883274056 
804	 0.588838001631338 
805	 0.588765222589743 
806	 0.589879739474855 
807	 0.590700629300624 
808	 0.589593033327031 
809	 0.585188338459395 
810	 0.579933402860456 
811	 0.57425564332897 
812	 0.566896559121668 
813	 0.553522387836076 
814	 0.534768416412303 
815	 0.513712348244597 
816	 0.495098604045995 
817	 0.483041565224483 
818	 0.478838737858215 
819	 0.482379386078501 
820	 0.492014299639016 
821	 0.499346539782961 
822	 0.498390969017603 
823	 0.49065553514044 
824	 0.489916568729384 
825	 0.50040998511102 
826	 0.514088525228726 
827	 0.520348980237693 
828	 0.516365226080171 
829	 0.511139079119779 
830	 0.509080750572493 
831	 0.51082866063899 
832	 0.513045908437337 
833	 0.515763748720686 
834	 0.519859593895877 
835	 0.526496540125882 
836	 0.53358821830062 
837	 0.539495373349597 
838	 0.54343588872629 
839	 0.545809754315169 
840	 0.547797867867483 
841	 0.549052177362206 
842	 0.549075453309172 
843	 0.548077164566838 
844	 0.547231466290748 
845	 0.547205184975013 
846	 0.547853630238631 
847	 0.547174850379404 
848	 0.543724028325657 
849	 0.537692815491316 
850	 0.530690012950329 
851	 0.525400101891496 
852	 0.520107403303354 
853	 0.513282314604584 
854	 0.504677515256317 
855	 0.500736046472293 
856	 0.504717800282806 
857	 0.515562236357327 
858	 0.52659628683487 
859	 0.53218852415701 
860	 0.53309836703379 
861	 0.532157213890862 
862	 0.531609652178592 
863	 0.529800056140841 
864	 0.524989490944605 
865	 0.516346103950438 
866	 0.506161632045197 
867	 0.499529057943466 
868	 0.499198021010242 
869	 0.505067172860792 
870	 0.512135131410126 
871	 0.516746437397322 
872	 0.517866482818739 
873	 0.516987020137139 
874	 0.515443341497747 
875	 0.514034175374986 
876	 0.513097168115335 
877	 0.512496246024551 
878	 0.511816774927386 
879	 0.510589777756488 
880	 0.50875631066082 
881	 0.506989447715512 
882	 0.506076142241791 
883	 0.505948740467595 
884	 0.50599641934134 
885	 0.505073213308484 
886	 0.503426680509978 
887	 0.501544435423373 
888	 0.500018798195826 
889	 0.499374541855148 
890	 0.498048487132041 
891	 0.495033318392165 
892	 0.48969025558252 
893	 0.481173829106485 
894	 0.469296507540245 
895	 0.454530681509012 
896	 0.437993694739259 
897	 0.42054569023755 
898	 0.404656969504241 
899	 0.392326165822148 
900	 0.384755271914264 
901	 0.383241162325155 
902	 0.387974363269239 
903	 0.397122584291601 
904	 0.406501204246773 
905	 0.411781432879798 
906	 0.410827585270257 
907	 0.403819198474123 
908	 0.393526501718829 
909	 0.383837361872795 
910	 0.377305671336023 
911	 0.374690878582065 
912	 0.374263855384454 
913	 0.37387329800538 
914	 0.372912416127528 
915	 0.371843724156765 
916	 0.371937637992711 
917	 0.374657582783778 
918	 0.379990151310672 
919	 0.386766703396619 
920	 0.392781354710402 
921	 0.397604081390181 
922	 0.400175627700209 
923	 0.399495880506948 
924	 0.396325766292911 
925	 0.390890633146931 
926	 0.382557093218925 
927	 0.370058982247973 
928	 0.352338942539126 
929	 0.328676595571912 
930	 0.299942739183871 
931	 0.268573887990256 
932	 0.237768784965467 
933	 0.210992747429481 
934	 0.190833788730312 
935	 0.178725046701326 
936	 0.175289296412037 
937	 0.179559893333485 
938	 0.189240012258988 
939	 0.200938656331145 
940	 0.211722568460998 
941	 0.219330205708638 
942	 0.222452788044445 
943	 0.220924604705906 
944	 0.216680658076986 
945	 0.212087037895891 
946	 0.209208491643089 
947	 0.209355550007954 
948	 0.211815795144125 
949	 0.215599350593092 
950	 0.219578246443171 
951	 0.222659415105385 
952	 0.225354183417514 
953	 0.227971509867553 
954	 0.230750185843117 
955	 0.233831242782218 
956	 0.23744197544261 
957	 0.241642609355801 
958	 0.246399201830278 
959	 0.251621655954015 
960	 0.25819418459604 
961	 0.265089511800531 
962	 0.271924255724462 
963	 0.28037868472226 
964	 0.289186207657033 
965	 0.29872856978612 
966	 0.309142980800777 
967	 0.31943676826931 
968	 0.329668317417989 
969	 0.33943444859681 
970	 0.347778860140164 
971	 0.352906559826812 
972	 0.355060647650172 
973	 0.355090870437815 
974	 0.353816844899706 
975	 0.351494963021074 
976	 0.350529189034972 
977	 0.35140860621229 
978	 0.354058691035724 
979	 0.358484782089385 
980	 0.36366881594316 
981	 0.369462572385651 
982	 0.375318865182842 
983	 0.379632074943576 
984	 0.383779963748768 
985	 0.387960227456425 
986	 0.391689789462511 
987	 0.393871677348086 
988	 0.396291951360934 
989	 0.398213373696318 
990	 0.39919398740892 
991	 0.400180422798529 
992	 0.399749379769482 
993	 0.400003878209979 
994	 0.401418986743021 
995	 0.401192545856714 
996	 0.400581933473074 
997	 0.400303241120457 
998	 0.400085986581242 
999	 0.398663990247355 
1000	 0.397632688205403 
1001	 0.386953646916675 
1002	 0.384280279738865 
1003	 0.381857517543781 
1004	 0.380425073331727 
1005	 0.378605550075048 
1006	 0.377731923861569 
1007	 0.377500415075101 
1008	 0.378925522960203 
1009	 0.379914365147018 
1010	 0.379191070834278 
1011	 0.379481225138741 
1012	 0.378025079765319 
1013	 0.376670091689959 
1014	 0.375039675362476 
1015	 0.374692644500422 
1016	 0.376648346682027 
1017	 0.376413970290178 
1018	 0.375744672580746 
1019	 0.375031723803058 
1020	 0.372756607825333 
1021	 0.369591192142391 
1022	 0.368948470092845 
1023	 0.369103442311248 
1024	 0.370212933852872 
1025	 0.37038332048949 
1026	 0.369798378273307 
1027	 0.368660221557056 
1028	 0.366491818597926 
1029	 0.365072374018655 
1030	 0.363716822551023 
1031	 0.362411371344597 
1032	 0.3611169891003 
1033	 0.35973203034736 
1034	 0.357801314732843 
1035	 0.355686783734427 
1036	 0.355418184464145 
1037	 0.35547615121013 
1038	 0.354730677641164 
1039	 0.355112323071771 
1040	 0.356091826992971 
1041	 0.356410145250307 
1042	 0.356067471324078 
1043	 0.356166266212779 
1044	 0.355248338063186 
1045	 0.353195049973002 
1046	 0.351717655534514 
1047	 0.350718040130806 
1048	 0.349947395866787 
1049	 0.347882374512157 
1050	 0.346364996253411 
1051	 0.346400863401549 
1052	 0.346154144468611 
1053	 0.346515900559904 
1054	 0.345550666285373 
1055	 0.344063806504962 
1056	 0.341133869334693 
1057	 0.339176471255297 
1058	 0.336780766309486 
1059	 0.335426297401447 
1060	 0.334543447260891 
1061	 0.334457187997148 
1062	 0.335754871598209 
1063	 0.335894332040936 
1064	 0.33440902011127 
1065	 0.332644793904894 
1066	 0.330284747444812 
1067	 0.327298468595664 
1068	 0.325650954459637 
1069	 0.325194146127636 
1070	 0.324843973706724 
1071	 0.324330383239937 
1072	 0.325958528747435 
1073	 0.327495300927537 
1074	 0.327284288372734 
1075	 0.326784020848032 
1076	 0.324910480261588 
1077	 0.322214487997306 
1078	 0.32028758797298 
1079	 0.317954992278179 
1080	 0.316476433401065 
1081	 0.315237450261065 
1082	 0.314680186335344 
1083	 0.313401167779778 
1084	 0.312029448660057 
1085	 0.310558494466092 
1086	 0.308385699637246 
1087	 0.30741268309731 
1088	 0.306776369224991 
1089	 0.305527560123405 
1090	 0.303674426244423 
1091	 0.301028089181924 
1092	 0.297099789889167 
1093	 0.293426928203187 
1094	 0.290109018074203 
1095	 0.286914523209081 
1096	 0.283533010216026 
1097	 0.280375544261839 
1098	 0.276828424357523 
1099	 0.272636988633672 
1100	 0.269070366417173 
1101	 0.265297340392438 
1102	 0.262576018380566 
1103	 0.260738880387884 
1104	 0.257791117372867 
1105	 0.254360552801721 
1106	 0.251047101440705 
1107	 0.247258103093418 
1108	 0.242587326839104 
1109	 0.235330773763115 
1110	 0.22817785269815 
1111	 0.216563631795172 
1112	 0.200038316695586 
1113	 0.184689718606825 
1114	 0.164698943518745 
1115	 0.149015431856691 
1116	 0.133985031386405 
1117	 0.121160102084313 
1118	 0.111053353971032 
1119	 0.102624533681891 
1120	 9.67892425520218E-02 
1121	 9.17242618440966E-02 
1122	 8.75766164896653E-02 
1123	 8.51852740084176E-02 
1124	 8.32460979555879E-02 
1125	 8.09687577822426E-02 
1126	 8.13890064037043E-02 
1127	 8.35261357852733E-02 
1128	 8.70061664063341E-02 
1129	 0.09656962271061 
1130	 0.100163089725801 
1131	 0.10252879098752 
1132	 0.102698556846228 
1133	 0.098136168249684 
1134	 9.43402858217552E-02 
1135	 9.82446464509157E-02 
1136	 0.106704711323529 
1137	 0.114336980195834 
1138	 0.130735751110708 
1139	 0.136275082682172 
1140	 0.13882262401243 
1141	 0.137253880908476 
1142	 0.127651332208074 
1143	 0.121236770156331 
1144	 0.108429342597328 
1145	 0.103101218615435 
1146	 0.101537170847814 
1147	 0.101483361305539 
1148	 0.106859365534149 
1149	 0.114327018373457 
1150	 0.119393639215612 
1151	 0.124344012217762 
1152	 0.130230230832249 
1153	 0.134772926795291 
1154	 0.141871261365176 
1155	 0.151868644891407 
1156	 0.159689369159307 
1157	 0.168458282780839 
1158	 0.175555997561116 
1159	 0.180969008932824 
1160	 0.186979125758664 
1161	 0.193910117496031 
1162	 0.199016231102564 
1163	 0.203767550698028 
1164	 0.20754554735284 
1165	 0.209888643168594 
1166	 0.208945568297598 
1167	 0.211110164691505 
1168	 0.213866546177332 
1169	 0.216027286332259 
1170	 0.220300225267562 
1171	 0.221315802080405 
1172	 0.219163309842798 
1173	 0.218588936311919 
1174	 0.216467200832862 
1175	 0.215956966449974 
1176	 0.217605735561144 
1177	 0.217766163496054 
1178	 0.217911138027227 
1179	 0.217926471602781 
1180	 0.216443267126555 
1181	 0.212803462799743 
1182	 0.212151707350386 
1183	 0.211691523584876 
1184	 0.211848368314473 
1185	 0.214007786461745 
1186	 0.214938759495685 
1187	 0.214343085955141 
1188	 0.215927942212071 
1189	 0.218919738521113 
1190	 0.221228649559281 
1191	 0.225644563095587 
1192	 0.227433945446726 
1193	 0.227976454185504 
1194	 0.227709221136862 
1195	 0.226460244023434 
1196	 0.223508127870559 
1197	 0.221717119993744 
1198	 0.219240729941654 
1199	 0.218028691781379 
1200	 0.217500663052833 
1201	 0.216876310250692 
1202	 0.21658903524728 
1203	 0.216510013208077 
1204	 0.216007774126099 
1205	 0.216704702672886 
1206	 0.218872892155667 
1207	 0.219952213887346 
1208	 0.221181648891925 
1209	 0.222277512295762 
1210	 0.2223247130679 
1211	 0.223086811116202 
1212	 0.224183834119222 
1213	 0.225783718134113 
1214	 0.22728475470619 
1215	 0.22924633311307 
1216	 0.230466237480221 
1217	 0.231742928560758 
1218	 0.23242587614962 
1219	 0.232484346286021 
1220	 0.232624239099811 
1221	 0.232066963287432 
1222	 0.23232689406727 
1223	 0.233099374494631 
1224	 0.233493672954752 
1225	 0.234085636046195 
1226	 0.234693936438355 
1227	 0.234979662044005 
1228	 0.235275174266663 
1229	 0.236047540399196 
1230	 0.237471091781381 
1231	 0.23805997963016 
1232	 0.238469443443244 
1233	 0.238949543765563 
1234	 0.239250659877315 
1235	 0.23931265799613 
1236	 0.239585764848314 
1237	 0.239312049663448 
1238	 0.238523006049611 
1239	 0.237646546124084 
1240	 0.236229983848377 
1241	 0.235258912497746 
1242	 0.234121192582692 
1243	 0.233279406184956 
1244	 0.232551002562213 
1245	 0.232531499013955 
1246	 0.232337233309687 
1247	 0.23175688170849 
1248	 0.23153983110338 
1249	 0.231863104837721 
1250	 0.231002151168621 
1251	 0.229881882624188 
1252	 0.228428533917228 
1253	 0.226170681042149 
1254	 0.223881927988619 
1255	 0.22170160826448 
1256	 0.218969226501162 
1257	 0.215540890720775 
1258	 0.212208837356697 
1259	 0.208759920127053 
1260	 0.205038718226068 
1261	 0.200700274041632 
1262	 0.196911035993244 
1263	 0.193117661590592 
1264	 0.18928312342028 
1265	 0.186444558993128 
1266	 0.183872952712088 
1267	 0.182829758288651 
1268	 0.18200673314573 
1269	 0.183713494254869 
1270	 0.187929937105471 
1271	 0.191513230992017 
1272	 0.197573439373792 
1273	 0.201310717008205 
1274	 0.204357219875885 
1275	 0.206668230042152 
1276	 0.207939117776721 
1277	 0.208993538891325 
1278	 0.209073016170098 
1279	 0.209500945557544 
1280	 0.209709330622584 
1281	 0.209647438565261 
1282	 0.210346208629757 
1283	 0.211890594090813 
1284	 0.213027887060717 
1285	 0.214661660139354 
1286	 0.215643011045235 
1287	 0.216477760894916 
1288	 0.216725885804639 
1289	 0.216565747223076 
1290	 0.216320184648989 
1291	 0.215634600383972 
1292	 0.214837051600231 
1293	 0.214120064666277 
1294	 0.212849419730735 
1295	 0.210684681788704 
1296	 0.209128573193229 
1297	 0.207810074696366 
1298	 0.206074062460462 
1299	 0.204461208754972 
1300	 0.20263737104597 
1301	 0.200474938740575 
1302	 0.198228099842187 
1303	 0.19582438118473 
1304	 0.193752652828555 
1305	 0.191458436980984 
1306	 0.188720650279339 
1307	 0.186406908657442 
1308	 0.184673463170928 
1309	 0.182069501622557 
1310	 0.179309772371706 
1311	 0.17633284441172 
1312	 0.171878288196144 
1313	 0.169338044566697 
1314	 0.167681839125416 
1315	 0.165954268524564 
1316	 0.165749015004207 
1317	 0.164544197165264 
1318	 0.162784577612936 
1319	 0.160943921774367 
1320	 0.15881901350634 
1321	 0.157042002483989 
1322	 0.155985553305401 
1323	 0.154592660606868 
1324	 0.151983787448753 
1325	 0.149761181045267 
1326	 0.144803977922769 
1327	 0.137227826842106 
1328	 0.130685825336584 
1329	 0.121464865786248 
1330	 0.116112719838836 
1331	 0.111768698547032 
1332	 0.109405128426696 
1333	 0.110429300145896 
1334	 0.110504126561036 
1335	 0.112532015879661 
1336	 0.112783574432001 
1337	 0.112767463316858 
1338	 0.111708933955948 
1339	 0.110128623569081 
1340	 0.106799045721259 
1341	 0.102145889527522 
1342	 9.61450294857401E-02 
1343	 8.79547302068314E-02 
1344	 0.078363852655763 
1345	 6.89533211089908E-02 
1346	 5.77858934999382E-02 
1347	 0.048188405371926 
1348	 3.84379903198091E-02 
1349	 3.00013122432514E-02 
1350	 0.022598440174649 
1351	 1.62411718094485E-02 
1352	 1.12579368063977E-02 
1353	 7.19357284277776E-03 
1354	 4.90982111308767E-03 
1355	 2.71435086757175E-03 
1356	 1.79611024669267E-03 
1357	 9.62309672982344E-04 
1358	 9.18882226516584E-04 
1359	 5.32830408749273E-04 
1360	 1.72603786962721E-04 
1361	 1.26692690438193E-04 
1362	 1.29722948547021E-04 
1363	 2.21836953475385E-04 
1364	 7.37304288232913E-04 
1365	 9.66998457671336E-04 
1366	 1.36482775689544E-03 
1367	 1.46472592817755E-03 
1368	 1.61657813747257E-03 
1369	 1.76205819397967E-03 
1370	 2.02482902261013E-03 
1371	 2.30238472808916E-03 
1372	 2.5344259713958E-03 
1373	 3.22138674213909E-03 
1374	 3.11663531395018E-03 
1375	 2.26538696910251E-03 
1376	 1.90591286560772E-03 
1377	 1.13892436677749E-03 
1378	 8.48703558094335E-04 
1379	 1.25848532027688E-03 
1380	 1.2656508326617E-03 
1381	 1.51564557232842E-03 
1382	 1.29222003414883E-03 
1383	 7.95552347342656E-05 
1384	-1.40860043366149E-04 
1385	-5.43058730376942E-05 
1386	-2.29988144504236E-05 
1387	 9.33481441241994E-04 
1388	 1.73618808329779E-03 
1389	 1.81097158766109E-03 
1390	 2.10404839237827E-03 
1391	 2.39472650894524E-03 
1392	 2.65079898759647E-03 
1393	 2.86073466846352E-03 
1394	 3.14359693309423E-03 
1395	 3.30024793860071E-03 
1396	 3.3725757499829E-03 
1397	 3.28148482528686E-03 
1398	 2.83510611432353E-03 
1399	 0.003047718574829 
1400	 3.40301411404749E-03 
1401	 3.74543091963998E-03 
1402	 0.00489421622599 
1403	 5.17205156833686E-03 
1404	 4.83022500324182E-03 
1405	 4.68788377896791E-03 
1406	 0.004046002259348 
1407	 4.02442691163535E-03 
1408	 4.07646507784803E-03 
1409	 4.53231646134759E-03 
1410	 5.58158065858865E-03 
1411	 6.35910274042906E-03 
1412	 7.95592769982218E-03 
1413	 9.77141005243767E-03 
1414	 1.09726162312391E-02 
1415	 1.21451850642464E-02 
1416	 1.26357421404964E-02 
1417	 1.18969805228122E-02 
1418	 0.012603471785816 
1419	 1.35721315509377E-02 
1420	 1.47503142366372E-02 
1421	 1.65748054198888E-02 
1422	 1.83260455421779E-02 
1423	 2.04438706012419E-02 
1424	 0.021869381652114 
1425	 2.33092030553056E-02 
1426	 2.43908015881194E-02 
1427	 2.49345890688128E-02 
1428	 2.51822493443382E-02 
1429	 2.50246697896331E-02 
1430	 0.025245352931417 
1431	 2.51996388768967E-02 
1432	 2.52981215989631E-02 
1433	 2.59736012013091E-02 
1434	 2.61680814486528E-02 
1435	 0.025680781556699 
1436	 2.56968168481148E-02 
1437	 2.56191017937595E-02 
1438	 0.026133481786244 
1439	 2.66022586836244E-02 
1440	 0.027558534318714 
1441	 2.85560179777609E-02 
1442	 2.95626930162543E-02 
1443	 3.12509896358591E-02 
1444	 3.32828841781499E-02 
1445	 3.51281822473292E-02 
1446	 3.74121043014141E-02 
1447	 3.89723882102032E-02 
1448	 3.97759028584064E-02 
1449	 4.16563775672954E-02 
1450	 4.33405853738826E-02 
1451	 4.61155995949005E-02 
1452	 4.98622864944244E-02 
1453	 5.37598991396735E-02 
1454	 0.058950369423269 
1455	 6.25688036890906E-02 
1456	 6.67819781107512E-02 
1457	 6.89131276930243E-02 
1458	 0.069559001895677 
1459	 6.94357299175759E-02 
1460	 6.77624844925128E-02 
1461	 6.60284982776361E-02 
1462	 6.34213536465397E-02 
1463	 6.07609743722312E-02 
1464	 0.057562870656719 
1465	 5.46832477503063E-02 
1466	 5.09990200734547E-02 
1467	 4.85326474162944E-02 
1468	 4.63650334350671E-02 
1469	 4.51095830678267E-02 
1470	 4.48556062275894E-02 
1471	 4.61317087670526E-02 
1472	 4.87486249476246E-02 
1473	 5.17549619580343E-02 
1474	 5.42948520031742E-02 
1475	 5.78326364440929E-02 
1476	 5.92835350203036E-02 
1477	 5.93256064152322E-02 
1478	 6.03474393296639E-02 
1479	 6.03522769642235E-02 
1480	 6.19993000983303E-02 
1481	 6.48798509421234E-02 
1482	 0.067253918642012 
1483	 7.01606466943308E-02 
1484	 7.25746237267603E-02 
1485	 7.42716991044438E-02 
1486	 7.70520563477099E-02 
1487	 7.97701776380276E-02 
1488	 8.35873917124713E-02 
1489	 8.92028341007371E-02 
1490	 9.35188804489599E-02 
1491	 9.81952067236281E-02 
1492	 0.101966627621423 
1493	 0.104771902405075 
1494	 0.107520794075681 
1495	 0.109854725399096 
1496	 0.112212766582893 
1497	 0.114668274773656 
1498	 0.116430405263807 
1499	 0.118188858703347 
1500	 0.119136512273123 
1501	 0.118512780900792 
1502	 0.118722573597777 
1503	 0.118575692335735 
1504	 0.118850445852865 
1505	 0.120528328070618 
1506	 0.12302176079644 
1507	 0.125655219111005 
1508	 0.128444348081316 
1509	 0.130407542876854 
1510	 0.131834029127076 
1511	 0.133407064336069 
1512	 0.134822810512583 
1513	 0.135819819933238 
1514	 0.136723087754665 
1515	 0.13724675025287 
1516	 0.136931994425778 
1517	 0.137457038296299 
1518	 0.13817805491851 
1519	 0.138926449731925 
1520	 0.140124344388376 
1521	 0.14093836017534 
1522	 0.141738452646451 
1523	 0.142142765546596 
1524	 0.142223247098951 
1525	 0.142398373935249 
1526	 0.142312691029051 
1527	 0.14228225745881 
1528	 0.142163856210774 
1529	 0.142338612475731 
1530	 0.142562898517457 
1531	 0.142830229873771 
1532	 0.1436512755269 
1533	 0.143922195861246 
1534	 0.143888055557217 
1535	 0.143782380518417 
1536	 0.143143124993093 
1537	 0.142973504502464 
1538	 0.142979468686573 
1539	 0.142989867292961 
1540	 0.143396304393728 
1541	 0.143542952633231 
1542	 0.143376279386112 
1543	 0.143433563610925 
1544	 0.143709199708257 
1545	 0.143729017705083 
1546	 0.143846108615419 
1547	 0.143734580660361 
1548	 0.143417392069214 
1549	 0.142679471393746 
1550	 0.14236898496214 
1551	 0.142142178139337 
1552	 0.141747522187407 
1553	 0.141378573284061 
1554	 0.1411176530384 
1555	 0.140784950099042 
1556	 0.140420235059881 
1557	 0.140257417502592 
1558	 0.139866474307706 
1559	 0.139141331521744 
1560	 0.138769548715492 
1561	 0.138636346208401 
1562	 0.138236177063121 
1563	 0.138078798635206 
1564	 0.137186716897203 
1565	 0.13590002731204 
1566	 0.134451190395282 
1567	 0.132423603610685 
1568	 0.1306777461847 
1569	 0.128766592192229 
1570	 0.127135870405375 
1571	 0.125477074095427 
1572	 0.124208658202293 
1573	 0.123125628211657 
1574	 0.122412619033151 
1575	 0.121978162464152 
1576	 0.121883649880247 
1577	 0.122095357877045 
1578	 0.122673316447264 
1579	 0.123854676687464 
1580	 0.124835147477625 
1581	 0.126285781989973 
1582	 0.1272410616352 
1583	 0.128207226953039 
1584	 0.128569407355551 
1585	 0.128305662084229 
1586	 0.128154898397602 
1587	 0.127418127689233 
1588	 0.127088600209517 
1589	 0.127004749759642 
1590	 0.126909887990595 
1591	 0.12688216940485 
1592	 0.126905456350666 
1593	 0.127185836334214 
1594	 0.127151118277729 
1595	 0.127353848213719 
1596	 0.126932987173155 
1597	 0.125930532223666 
1598	 0.124871853563823 
1599	 0.123116199574662 
1600	 0.121770290828593 
1601	 0.120289496047187 
1602	 0.119282000752204 
1603	 0.118675696759493 
1604	 0.118207687865435 
1605	 0.118170072401487 
1606	 0.118376278490459 
1607	 0.118508657439892 
1608	 0.118591664395866 
1609	 0.118742977001113 
1610	 0.119025581559742 
1611	 0.119889497893784 
1612	 0.121136148392419 
1613	 0.121889393775854 
1614	 0.122789689886633 
1615	 0.123286639775126 
1616	 0.123229022079112 
1617	 0.123746763235523 
1618	 0.123980910831054 
1619	 0.123745250378749 
1620	 0.123773054359852 
1621	 0.123869129596332 
1622	 0.123848610529384 
1623	 0.123942494135701 
1624	 0.124307530043241 
1625	 0.124520481110533 
1626	 0.124634028248414 
1627	 0.124724465322448 
1628	 0.125043057361698 
1629	 0.124756157840381 
1630	 0.124111610368359 
1631	 0.123432308268923 
1632	 0.122348461874933 
1633	 0.12159477855631 
1634	 0.120944255252239 
1635	 0.120048560341337 
1636	 0.11915644878069 
1637	 0.118091481175281 
1638	 0.116606499030802 
1639	 0.1157450973023 
1640	 0.115004835837043 
1641	 0.11457953507619 
1642	 0.11469976660481 
1643	 0.114496408395459 
1644	 0.114156356006696 
1645	 0.114237619372463 
1646	 0.114643295216887 
1647	 0.114706060818805 
1648	 0.11499478637199 
1649	 0.114996990648566 
1650	 0.114484929356012 
1651	 0.114171238337232 
1652	 0.113926531015437 
1653	 0.113872641129409 
1654	 0.113808022614179 
1655	 0.113915993442164 
1656	 0.114633573429771 
1657	 0.114546673362986 
1658	 0.113998139050356 
1659	 0.113469581673208 
1660	 0.112445396188699 
1661	 0.111519196505075 
1662	 0.1104002675353 
1663	 0.10991849054081 
1664	 0.110024291934602 
1665	 0.109078722901774 
1666	 0.107798788307771 
1667	 0.10680743504341 
1668	 0.104167945531544 
1669	 0.103070838363059 
1670	 0.104988799866967 
1671	 0.104443735359289 
1672	 0.102969884719808 
1673	 0.101399252678501 
1674	 0.097767293226106 
1675	 9.54536363128175E-02 
1676	 9.43504169522746E-02 
1677	 9.33953426963255E-02 
1678	 9.28965255152425E-02 
1679	 9.33105548595077E-02 
1680	 9.50595775113793E-02 
1681	 9.53568296354598E-02 
1682	 9.55878945196251E-02 
1683	 9.56002982034673E-02 
1684	 9.42985991143507E-02 
1685	 9.43578107972659E-02 
1686	 9.53368209757075E-02 
1687	 9.55512097448941E-02 
1688	 0.096108635478149 
1689	 9.62388687386787E-02 
1690	 9.56199885669766E-02 
1691	 9.59955720473692E-02 
1692	 9.73262534062468E-02 
1693	 9.72278270756484E-02 
1694	 9.63786833649039E-02 
1695	 9.64065118449011E-02 
1696	 9.57160244459664E-02 
1697	 9.56800789162759E-02 
1698	 0.097607166468961 
1699	 9.72470824890198E-02 
1700	 9.51351981842868E-02 
1701	 9.44342484356386E-02 
1702	 9.37073459841843E-02 
1703	 9.27206572793539E-02 
1704	 9.22367630004968E-02 
1705	 9.18300033385592E-02 
1706	 9.00639845183797E-02 
1707	 8.94892582612231E-02 
1708	 9.11508689512671E-02 
1709	 9.04487325769558E-02 
1710	 8.90931330159593E-02 
1711	 8.82235189618867E-02 
1712	 8.57334192318189E-02 
1713	 8.56590518488183E-02 
1714	 8.65284095568584E-02 
1715	 8.67919592462791E-02 
1716	 0.088918590764069 
1717	 8.91176394022437E-02 
1718	 8.88564900591915E-02 
1719	 8.78702043834321E-02 
1720	 8.48298577482589E-02 
1721	 8.32872560032839E-02 
1722	 8.14031821561829E-02 
1723	 8.08390745789327E-02 
1724	 8.17945580860123E-02 
1725	 8.33510186300357E-02 
1726	 8.46196588906004E-02 
1727	 8.71086297229981E-02 
1728	 8.76775056062392E-02 
1729	 8.67856518636736E-02 
1730	 8.68986938853233E-02 
1731	 8.50400626370566E-02 
1732	 8.39745459709434E-02 
1733	 8.34675997465403E-02 
1734	 8.13767491877504E-02 
1735	 8.03436180290737E-02 
1736	 7.81600821208336E-02 
1737	 7.60292380585712E-02 
1738	 7.64656572100443E-02 
1739	 7.63794065537714E-02 
1740	 7.56060090793493E-02 
1741	 7.46151480954628E-02 
1742	 0.072614627526042 
1743	 7.10661526885209E-02 
1744	 7.14469600471714E-02 
1745	 7.27587481327499E-02 
1746	 7.35193888531822E-02 
1747	 7.49640553534441E-02 
1748	 7.56363683098075E-02 
1749	 7.55502708805437E-02 
1750	 7.64287595209383E-02 
1751	 7.64027512334254E-02 
1752	 7.69624721204261E-02 
1753	 7.80253155993644E-02 
1754	 7.78172804045285E-02 
1755	 7.74346319940556E-02 
1756	 7.73027381326803E-02 
1757	 7.73908844176678E-02 
1758	 7.78141833884351E-02 
1759	 7.76662146340321E-02 
1760	 7.62927177340324E-02 
1761	 7.38463998940879E-02 
1762	 7.13228146875746E-02 
1763	 0.070257788681134 
1764	 6.98172125019615E-02 
1765	 7.01855967489423E-02 
1766	 7.10936383517823E-02 
1767	 7.08637545951377E-02 
1768	 7.02553264642798E-02 
1769	 6.94073945364808E-02 
1770	 6.78401057664696E-02 
1771	 0.066590602409768 
1772	 6.55762200900453E-02 
1773	 6.39290991074091E-02 
1774	 6.24777865797827E-02 
1775	 6.07869051611342E-02 
1776	 5.91951718513057E-02 
1777	 5.82669283901662E-02 
1778	 0.057443968850597 
1779	 5.64959938288621E-02 
1780	 5.50945907376773E-02 
1781	 5.47634635185246E-02 
1782	 5.40208620077197E-02 
1783	 5.20736346423314E-02 
1784	 5.16930028599158E-02 
1785	 4.98869688613937E-02 
1786	 4.76530784083201E-02 
1787	 4.86082570126527E-02 
1788	 4.79402462641901E-02 
1789	 4.77552824315291E-02 
1790	 4.60905895504998E-02 
1791	 4.20179297489005E-02 
1792	 3.91233819515433E-02 
1793	 3.56641528672584E-02 
1794	 3.33235679878751E-02 
1795	 3.14928866805184E-02 
1796	 3.07323164218705E-02 
1797	 2.99057599917293E-02 
1798	 2.73350124374013E-02 
1799	 2.49309680045507E-02 
1800	 2.25880654533178E-02 
1801	 1.60747260346608E-02 
1802	 1.43670909915631E-02 
1803	 1.46154313238256E-02 
1804	 1.39749005118369E-02 
1805	 1.46203766711619E-02 
1806	 1.40792594605825E-02 
1807	 1.30866119520752E-02 
1808	 1.14337106166345E-02 
1809	 9.86645837679001E-03 
1810	 8.99092410167948E-03 
1811	 7.96258176522688E-03 
1812	 6.76527075577892E-03 
1813	 6.36949637889341E-03 
1814	 6.63262437551174E-03 
1815	 6.18193690400597E-03 
1816	 5.92703356717294E-03 
1817	 5.59248552310882E-03 
1818	 4.65789984964521E-03 
1819	 4.28226801892625E-03 
1820	 3.81898418355645E-03 
1821	 3.52030354495384E-03 
1822	 3.44424148655228E-03 
1823	 3.56464424865443E-03 
1824	 3.4365732012844E-03 
1825	 4.02356859055235E-03 
1826	 3.73027723977391E-03 
1827	 2.75792119174731E-03 
1828	 1.34434113694049E-03 
1829	 4.8957663691028E-04 
1830	-4.85928231655462E-04 
1831	-8.2827918796216E-04 
1832	-4.71949496690037E-04 
1833	-3.24811034223138E-04 
1834	 3.57239774547731E-04 
1835	 4.67653694743045E-04 
1836	 5.32649894654224E-05 
1837	 3.90192059543053E-04 
1838	 7.48410122522937E-04 
1839	 3.39805592364985E-04 
1840	 6.23952404320575E-04 
1841	 2.52064633730325E-04 
1842	-6.13568537884175E-06 
1843	-4.7618635178214E-04 
1844	-7.9148174372138E-04 
1845	-1.34941040730187E-03 
1846	-1.28145190769899E-03 
1847	-9.5196644276336E-04 
1848	-1.23206698601689E-03 
1849	-1.06208960723215E-03 
1850	-6.44460379364275E-04 
1851	-4.14574155499186E-04 
1852	-3.98812259236205E-04 
1853	-7.18145793800904E-05 
1854	 5.91521413391476E-04 
1855	 7.42859278327335E-04 
1856	 7.51751686325631E-04 
1857	 8.15846427993872E-04 
1858	 2.18485933642762E-04 
1859	 8.44153967072096E-05 
1860	 6.04446337665782E-04 
1861	 5.68858439764775E-04 
1862	 5.24878024874551E-04 
1863	 5.59189372113241E-04 
1864	 5.69617615820713E-04 
1865	 1.69863206725493E-04 
1866	 2.99077520419605E-04 
1867	 8.32502612795667E-04 
1868	 1.3434798298405E-03 
1869	 1.39816520416585E-03 
1870	 1.44888545661277E-03 
1871	 1.33696822082765E-03 
1872	 3.76843333959011E-04 
1873	-3.2824606259084E-05 
1874	-1.92861438713089E-04 
1875	-3.74670317070153E-04 
1876	-6.80465367619191E-04 
1877	-4.42269538436247E-04 
1878	 1.28492368592307E-04 
1879	 1.57642003550831E-04 
1880	 3.87988680095426E-04 
1881	 8.62886290944682E-04 
1882	 6.75201537737791E-04 
1883	 7.59612605936101E-04 
1884	 9.29984642044819E-04 
1885	 1.10612214974488E-03 
1886	 1.35092420416942E-03 
1887	 1.80497915485412E-03 
1888	 1.69639976291989E-03 
1889	 1.2647775347541E-03 
1890	 6.98095087853447E-04 
1891	 2.76067501378204E-04 
1892	 7.82295055264491E-05 
1893	-6.08511567474453E-05 
1894	-9.45251953195848E-05 
1895	 1.18614883775355E-04 
1896	 6.22288711532266E-04 
1897	 8.81682201864872E-04 
1898	 0.00079773213643 
1899	 9.60784609630318E-04 
1900	 5.48704538764954E-04 
1901	 1.0999860223368E-04 
1902	 0.000519639619564 
1903	 6.94535880418722E-04 
1904	 5.61866238540666E-04 
1905	 6.90061336293497E-04 
1906	 8.79208944603575E-04 
1907	 9.88925566245979E-04 
1908	 1.27356657403924E-03 
1909	 1.91680408264402E-03 
1910	 2.20593230722015E-03 
1911	 1.84098671536203E-03 
1912	 1.30842930965709E-03 
1913	 7.73773155809387E-04 
1914	 5.89858823429403E-04 
1915	 8.8163373556743E-04 
1916	 1.17646633137181E-03 
1917	 1.34664313129891E-03 
1918	 1.43187577490686E-03 
1919	 1.57204892176237E-03 
1920	 1.89153759033466E-03 
1921	 1.94726415302139E-03 
1922	 2.2122303721325E-03 
1923	 2.47920883952471E-03 
1924	 2.34528275550375E-03 
1925	 2.2291013930695E-03 
1926	 2.00726758584933E-03 
1927	 1.93307849405559E-03 
1928	 1.75425160808996E-03 
1929	 1.5545541651463E-03 
1930	 1.66198978909473E-03 
1931	 2.48246903498986E-03 
1932	 3.07972920516821E-03 
1933	 3.72784484523291E-03 
1934	 4.79411289719055E-03 
1935	 5.02056922373316E-03 
1936	 0.004983660987694 
1937	 5.23020724745904E-03 
1938	 5.31528787218634E-03 
1939	 5.76698811166877E-03 
1940	 6.29827387450628E-03 
1941	 7.16655365681234E-03 
1942	 7.93945391413367E-03 
1943	 8.59533227490512E-03 
1944	 8.6460212542205E-03 
1945	 8.62275931188203E-03 
1946	 8.79900054425027E-03 
1947	 8.80996876723402E-03 
1948	 9.32927002431778E-03 
1949	 1.02044788749194E-02 
1950	 1.05555731734846E-02 
1951	 1.04744759627702E-02 
1952	 1.01450367860318E-02 
1953	 9.29154252255579E-03 
1954	 8.13236900426543E-03 
1955	 7.26755310688326E-03 
1956	 6.88321756346055E-03 
1957	 7.70074961073417E-03 
1958	 8.80705008397479E-03 
1959	 1.00730089565611E-02 
1960	 1.16485734160378E-02 
1961	 1.24500231524082E-02 
1962	 1.35911568947892E-02 
1963	 1.46510040610875E-02 
1964	 1.61834567176569E-02 
1965	 1.79319186272836E-02 
1966	 2.00808969280873E-02 
1967	 0.022206573554097 
1968	 2.36432307145209E-02 
1969	 2.47934501275124E-02 
1970	 2.58618470661814E-02 
1971	 2.68193538506652E-02 
1972	 2.85992316044252E-02 
1973	 3.05223851658626E-02 
1974	 3.33160850590111E-02 
1975	 3.50727376884337E-02 
1976	 3.69823127439668E-02 
1977	 0.037659231273754 
1978	 3.80454708607307E-02 
1979	 3.85363672292284E-02 
1980	 3.93390884662083E-02 
1981	 4.11364450274069E-02 
1982	 4.26261552134405E-02 
1983	 4.32968894478257E-02 
1984	 0.043397155178243 
1985	 4.27578670246698E-02 
1986	 4.23729636149066E-02 
1987	 4.14031394455484E-02 
1988	 4.11359316193306E-02 
1989	 4.12206333548502E-02 
1990	 4.15093250397697E-02 
1991	 0.04193797871405 
1992	 4.17987482321967E-02 
1993	 4.04965333927788E-02 
1994	 3.82155107073137E-02 
1995	 3.46834723604682E-02 
1996	 3.03616969893041E-02 
1997	 2.61502270992473E-02 
1998	 2.08928319474755E-02 
1999	 1.68745577495148E-02 
2000	 1.26062412620681E-02 
2001	 9.75882623742487E-03 
2002	 7.72138182505094E-03 
2003	 6.6731713987052E-03 
2004	 6.50709548833347E-03 
2005	 7.16965748724145E-03 
2006	 8.30568136762585E-03 
2007	 9.7607352667307E-03 
2008	 1.10941663116459E-02 
2009	 1.17543771072935E-02 
2010	 1.21383929208358E-02 
2011	 1.18992656076642E-02 
2012	 1.18025740817421E-02 
2013	 1.10670309913905E-02 
2014	 1.11797873354828E-02 
2015	 1.14086667794299E-02 
2016	 1.20326295948035E-02 
2017	 1.35508577981507E-02 
2018	 1.58963311245661E-02 
2019	 1.81183161364256E-02 
2020	 2.04183018798774E-02 
2021	 2.31653920358444E-02 
2022	 2.55205634461583E-02 
2023	 2.79394784210433E-02 
2024	 3.08020502159323E-02 
2025	 3.32330974765981E-02 
2026	 3.54186886324016E-02 
2027	 3.73056713132343E-02 
2028	 3.90590094165328E-02 
2029	 4.03591887010607E-02 
2030	 4.15692303646857E-02 
2031	 4.27392607292196E-02 
2032	 4.36725793347487E-02 
2033	 4.43970029035614E-02 
2034	 4.47390466650457E-02 
2035	 0.044910219954068 
2036	 4.49246298308369E-02 
2037	 4.47485659560463E-02 
2038	 4.46262987827323E-02 
2039	 0.044290099753639 
2040	 4.39698720724093E-02 
2041	 4.36065691739699E-02 
2042	 4.32614083366914E-02 
2043	 4.30168233543178E-02 
2044	 4.26638549351354E-02 
2045	 4.19570649604772E-02 
2046	 4.07437518882981E-02 
2047	 3.84250755917486E-02 
2048	 3.56913664231738E-02 
2049	 3.32592072275929E-02 
2050	 3.11341466324361E-02 
2051	 2.92269668947313E-02 
2052	 2.75309834952902E-02 
2053	 2.64488164072602E-02 
2054	 2.52861952652472E-02 
2055	 2.51238874918515E-02 
2056	 2.58566616624148E-02 
2057	 2.73238161789157E-02 
2058	 0.028920824928484 
2059	 3.04358434469823E-02 
2060	 3.11944320893125E-02 
2061	 0.031001965211315 
2062	 3.01761030920081E-02 
2063	 2.91289028291177E-02 
2064	 2.87580220703875E-02 
2065	 2.85784380835346E-02 
2066	 2.87061728500697E-02 
2067	 0.029278765709359 
2068	 2.99328738424969E-02 
2069	 3.07526764926425E-02 
2070	 3.15721537236717E-02 
2071	 3.25421891588394E-02 
2072	 3.36372604145595E-02 
2073	 3.49548955981715E-02 
2074	 3.62428417170946E-02 
2075	 3.71029475822003E-02 
2076	 3.84839870267408E-02 
2077	 3.95682784282535E-02 
2078	 4.01761849620801E-02 
2079	 4.08479107966167E-02 
2080	 4.16264457605001E-02 
2081	 4.19358099330315E-02 
2082	 4.17576891402524E-02 
2083	 4.19561740071691E-02 
2084	 0.042147859924164 
2085	 4.24935258658329E-02 
2086	 4.30984630270233E-02 
2087	 4.34099389310126E-02 
2088	 4.39081842667908E-02 
2089	 4.42022249890521E-02 
2090	 4.42874632548878E-02 
2091	 4.43388068068657E-02 
2092	 4.42657645162896E-02 
2093	 4.41557775758339E-02 
2094	 4.39945294986636E-02 
2095	 4.37718620254891E-02 
2096	 4.36871660645368E-02 
2097	 4.34184464258213E-02 
2098	 0.043391435189566 
2099	 4.37029188538213E-02 
2100	 4.38872335477834E-02 
2101	 4.40638637111923E-02 
2102	 4.43964482197623E-02 
2103	 4.45426175349302E-02 
2104	 4.45204567530403E-02 
2105	 0.045149737963289 
2106	 4.54871588070255E-02 
2107	 4.56294759767584E-02 
2108	 4.59454812249845E-02 
2109	 4.54436792832747E-02 
2110	 4.50100876743236E-02 
2111	 4.45648272691012E-02 
2112	 0.043893456433693 
2113	 4.35247235879535E-02 
2114	 4.31292130715151E-02 
2115	 4.30495910151572E-02 
2116	 0.043366650986842 
2117	 4.36498592656989E-02 
2118	 4.41747067294926E-02 
2119	 4.45721091496067E-02 
2120	 4.47730040698509E-02 
2121	 4.51091251821745E-02 
2122	 4.48449797193899E-02 
2123	 4.42304397646716E-02 
2124	 4.41621538983334E-02 
2125	 4.35971044559631E-02 
2126	 4.31093264047132E-02 
2127	 4.32002555539314E-02 
2128	 4.32196164876537E-02 
2129	 4.32336551719001E-02 
2130	 4.34355344328213E-02 
2131	 0.044099340786966 
2132	 4.41802938460328E-02 
2133	 4.37937489530682E-02 
2134	 4.36105501807358E-02 
2135	 4.32389508742016E-02 
2136	 4.32592680222074E-02 
2137	 4.26891508870733E-02 
2138	 4.28149935833798E-02 
2139	 4.31227819007907E-02 
2140	 4.28404553235842E-02 
2141	 4.30815755652849E-02 
2142	 4.31177790673142E-02 
2143	 4.24202792657493E-02 
2144	 4.19823975208083E-02 
2145	 0.041678725284946 
2146	 4.15270524199414E-02 
2147	 4.12243152805843E-02 
2148	 4.09195644662391E-02 
2149	 4.06065605880912E-02 
2150	 4.03509141185614E-02 
2151	 4.00243712094947E-02 
2152	 3.94483433730319E-02 
2153	 3.94414474901465E-02 
2154	 3.95292327415741E-02 
2155	 0.039376516743912 
2156	 4.00120018553669E-02 
2157	 4.02049221125737E-02 
2158	 3.98888378490976E-02 
2159	 3.97309220309972E-02 
2160	 3.94030153526575E-02 
2161	 3.90343129134359E-02 
2162	 0.038725560275658 
2163	 3.86132339421233E-02 
2164	 3.82413156902041E-02 
2165	 3.75684607904376E-02 
2166	 3.71367519554667E-02 
2167	 3.64341865865424E-02 
2168	 3.61153243608646E-02 
2169	 3.62871885598354E-02 
2170	 3.61857482115003E-02 
2171	 3.61002018029731E-02 
2172	 3.63624720440362E-02 
2173	 0.036253889721602 
2174	 3.57065099906253E-02 
2175	 0.035396680564271 
2176	 3.54967021928975E-02 
2177	 0.035412752611591 
2178	 3.55769611246154E-02 
2179	 3.57216968195354E-02 
2180	 3.56720250868352E-02 
2181	 3.51957340652797E-02 
2182	 3.49842262796563E-02 
2183	 3.46566518434015E-02 
2184	 3.38952392915348E-02 
2185	 3.36329450296829E-02 
2186	 3.34653663792011E-02 
2187	 3.35611476885565E-02 
2188	 3.43778535640182E-02 
2189	 3.47451690268758E-02 
2190	 3.56173338763783E-02 
2191	 3.55335271707749E-02 
2192	 3.45383136720551E-02 
2193	 3.36328648097989E-02 
2194	 3.22163505021942E-02 
2195	 3.20147983700888E-02 
2196	 3.18702856054441E-02 
2197	 3.19482103020755E-02 
2198	 3.26098630883801E-02 
2199	 0.032208871949822 
2200	 3.28472783774223E-02 
2201	 3.36451979565514E-02 
2202	 3.39306410115755E-02 
2203	 3.39958514535934E-02 
2204	 3.34838574133917E-02 
2205	 0.031673271845372 
2206	 3.07180516103535E-02 
2207	 2.98344249588228E-02 
2208	 2.89689816490761E-02 
2209	 2.85452842856056E-02 
2210	 2.86221796093579E-02 
2211	 2.82773880494536E-02 
2212	 2.88226733405337E-02 
2213	 0.031899050574767 
2214	 3.20418574838961E-02 
2215	 0.033929719122773 
2216	 3.53622975136146E-02 
2217	 3.18139913020982E-02 
2218	 3.37787464191175E-02 
2219	 3.61666220271854E-02 
2220	 3.75074526651633E-02 
2221	 4.45766107296147E-02 
2222	 4.66577982898403E-02 
2223	 0.047987880204529 
2224	 3.72495290653748E-02 
2225	 2.75773609340324E-02 
2226	 5.23958329473851E-02 
2227	 6.75554824479186E-02 
2228	 9.52221855673924E-02 
2229	 0.119122972555958 
2230	 0.128817373969836 
2231	 0.110043024948282 
2232	 7.60116151671173E-02 
2233	 7.80281216774207E-03 
2234	-0.345087460678 
2235	-0.695432684769548 
2236	-0.818689403872689 
2237	-0.683191355022259 
2238	-0.270479932136497 
2239	-8.38631815140314E-02 
2240	 3.24852859969518E-02 
2241	 0.165271480362357 
2242	 0.272113868183061 
2243	 3.77356238470171E-02 
2244	-0.157339896431425 
2245	-0.257617725212481 
2246	-8.24193142895977E-02 
2247	-6.38352191396364E-02 
2248	-9.14297568158417E-02 
2249	-7.99549972802305E-02 
2250	-0.199334388455774 
2251	-7.3027961135307 
2252	-5.97552519598852 
2253	-0.197519330006661 
2254	-4.02797333132665E-03 
2255	 0.246657715178707 
2256	 0.234014034327863 
2257	 0.253455051268398 
2258	 0.230846503488389 
2259	 6.32361376892793E-02 
2260	 2.16325804985248E-02 
2261	 6.80963438429152E-03 
2262	-1.78779072153985E-02 
2263	 4.35348045266264E-02 
2264	 1.73141391213177E-02 
2265	-3.95495965684959E-02 
2266	-8.41400243096297E-02 
2267	-0.108508184203867 
2268	-0.109762438141813 
2269	-0.111463690011909 
2270	-2.38573065505946E-02 
2271	 6.53083702017324E-02 
2272	 7.07146871018406E-02 
2273	 0.041518987215963 
2274	 1.03735925655203E-02 
2275	-4.27180304265808E-02 
2276	-4.79830665909054E-02 
2277	-1.33348705285977E-02 
2278	 4.16581991469183E-02 
2279	 5.32611217959737E-02 
2280	 1.47888336637987E-02 
2281	-0.016738412855809 
2282	-3.43871314447731E-02 
2283	-4.01339238525117E-02 
2284	-2.94074632977308E-02 
2285	-0.017660354075142 
2286	 4.75981851788066E-03 
2287	 1.16417529060492E-02 
2288	 1.36326762729935E-02 
2289	 1.90716093733296E-02 
2290	 2.70091747251818E-02 
2291	 2.23509744577669E-02 
2292	 0.022221515713052 
2293	 1.50780013919816E-02 
2294	-6.4987374499144E-03 
2295	-1.47496875776431E-02 
2296	-2.85507103727118E-02 
2297	-3.26983185146284E-02 
2298	-2.57701411727186E-02 
2299	-1.66008384150983E-02 
2300	 5.71735286026118E-03 
2301	 1.58010927171931E-02 
2302	 2.17987420045199E-02 
2303	 0.038315231906724 
2304	 4.12988255288954E-02 
2305	 4.95382525931036E-02 
2306	 6.23879563460578E-02 
2307	 4.72236474694697E-02 
2308	 3.85599385985537E-02 
2309	 1.43789293399564E-02 
2310	-2.1795691495905E-03 
2311	 1.52366453828503E-02 
2312	 4.00146677354825E-02 
2313	 6.86896754348693E-02 
2314	 6.45648337038318E-02 
2315	-1.12586290826994E-02 
2316	-8.17830845805954E-02 
2317	-0.104031757108993 
2318	-8.76273876195812E-02 
2319	-2.38359178967131E-02 
2320	 3.03085326413306E-02 
2321	 9.66216336819983E-02 
2322	 0.177391174196588 
2323	 0.228356541018428 
2324	 0.293545238190743 
2325	 0.662462213053575 
2326	 6.35800902522343 
2327	-0.240579833775363 
2328	-0.146772663418086 
2329	-0.117151373234254 
2330	-6.64319251949013E-02 
2331	-0.045900737216735 
2332	-5.02427102896704E-02 
2333	-6.24899737980752E-02 
2334	-0.078309345868648 
2335	-0.091864644761351 
2336	-0.083219083611405 
2337	-8.36542606998537E-02 
2338	-7.45497050177325E-02 
2339	-3.42035782038863E-02 
2340	-1.86619578879304E-02 
2341	-1.45435308042453E-02 
2342	-7.06385614393107E-03 
2343	-1.39225497888103E-02 
2344	-4.33327001448889E-03 
2345	 1.06772835219953E-02 
2346	 3.75165821179143E-02 
2347	 4.65017298821654E-02 
2348	 7.25362751057335E-02 
2349	 7.21130718145516E-02 
2350	 2.46028142022461E-02 
2351	 1.22749328636493E-02 
2352	 1.47145294693382E-02 
2353	 8.14308938342997E-03 
2354	 4.83087478757244E-02 
2355	 0.055035680937639 
2356	 2.34495676672134E-02 
2357	 3.69273325037101E-02 
2358	 4.69902674987926E-02 
2359	 7.93156341802438E-02 
2360	 0.104050080955309 
2361	 0.137332946378056 
2362	 0.146356351039922 
2363	 0.011875941625833 
2364	-9.79544922056356E-02 
2365	-0.182837315415426 
2366	-3.42359062084377E-02 
2367	 0.01982890684464 
2368	 2.90827690820129E-02 
2369	 6.7397634868194E-03 
2370	-2.79993249802845E-02 
2371	-0.073923855504444 
2372	-9.41084628546664E-02 
2373	-4.18708830039183E-02 
2374	 1.78396359255228E-02 
2375	 0.054195782587991 
2376	 5.44010639304506E-02 
2377	 6.44645135777552E-02 
2378	 6.59805428361303E-02 
2379	 0.131632619706579 
2380	 0.294881880397888 
2381	 0.588329912016818 
2382	 0.227770312850379 
2383	-2.34868172766134E-02 
2384	 0.029793302209161 
2385	 0.108151305774289 
2386	 0.147000065734107 
2387	 0.285389520830799 
2388	 0.335486927759804 
2389	 0.196127537770182 
2390	 6.95904713677572E-02 
2391	 5.04374355121238E-02 
2392	 0.034405944179388 
2393	 2.46887969790081E-02 
2394	 3.81824085452171E-02 
2395	 2.58161787633324E-02 
2396	-0.215034541727677 
2397	 8.64755704506914E-02 
2398	-5.61573151467364E-02 
2399	-0.44000717381692 
2400	-0.686904313028956 
2401	 0.572094878666743 
2402	 0.316895482432462 
2403	 0.243304363539024 
2404	 0.173463978925221 
2405	 0.21542179432858 
2406	 0.28827044341638 
2407	 0.34394667779874 
2408	 0.372182434106778 
2409	 0.129228312718823 
2410	 5.08203023198971E-02 
2411	 5.11748804315817E-02 
2412	 0.113821750499339 
2413	 0.204524268133507 
2414	 6.77632069138259 
2415	 1.31364062608132 
2416	-2.62386505915474 
2417	 0.638196558551394 
2418	 0.114087884748311 
2419	 2.78739386577541E-02 
2420	 1.74154235332304E-02 
2421	-2.14088603487454E-02 
2422	-6.44445582181975E-02 
2423	-5.14313321202546E-02 
2424	 1.45032846699333E-02 
2425	 0.105168253090822 
2426	 0.141653258698549 
2427	 0.123503871718218 
2428	 8.36748550975991E-02 
2429	 8.74423120412889E-02 
2430	 0.129119709212578 
2431	 0.249582005293916 
2432	 0.38487018009204 
2433	 0.20516573957096 
2434	 6.58703836778535E-02 
2435	-3.65942527991992E-04 
2436	-1.11183989914732E-02 
2437	 0.027831643491125 
2438	 3.31998424751108E-02 
2439	-1.89849213021208E-02 
2440	-6.86295817447804E-02 
2441	-0.084027900978986 
2442	-1.70075498679132E-03 
2443	-2.54316897847626E-02 
2444	-4.23483595937255E-02 
2445	-1.64068016879026E-03 
2446	-2.7926422261595E-03 
2447	 7.24048968451773E-02 
2448	 7.41875947322699E-02 
2449	 8.59524009397082E-02 
2450	 0.211059404336549 
2451	 0.155597868373264 
2452	 0.213310444010117 
2453	 0.612567284923585 
2454	 0.248643222699691 
2455	 0.110266905775231 
2456	 0.13366742537345 
2457	 0.045334550713932 
2458	 4.09472920181259E-02 
2459	 2.39590750384681E-02 
2460	 1.30710956950865E-03 
2461	 1.34895711329791E-02 
2462	-1.41806920969117E-03 
2463	 0.022570465036681 
2464	 6.54917799059013E-02 
2465	 0.147678083734962 
2466	 0.131679093283767 
2467	 0.229086629083479 
2468	 0.378776991984281 
2469	 0.406838480687587 
2470	-1.07582114565472 
2471	-0.210613771344224 
2472	-6.96397963363721E-02 
2473	-0.035903568979989 
2474	-3.35362456640155E-02 
2475	-2.75220824301504E-02 
2476	-3.27292007631534E-02 
2477	-0.25025183502685 
2478	 4.29819651525293E-02 
2479	 6.82805012536169E-02 
2480	 6.74702517962548E-02 
2481	 0.153005593792001 
2482	 0.154017924776427 
2483	 0.107281249743034 
2484	 4.86200762886383E-02 
2485	-6.38181816571098E-02 
2486	-7.27638972533856E-02 
2487	-2.40563203911927E-02 
2488	-2.20652893260807E-03 
2489	 0.170274297482169 
2490	 0.488871647921174 
2491	 0.71796185637872 
2492	 1.91762105564371 
2493	-0.257127386988882 
2494	-7.42606535019694E-02 
2495	 0.311375729950781 
2496	 0.404322705908193 
2497	 6.72369269092824E-02 
2498	-0.125391664464171 
2499	-1.31916814017834 
2500	 0.976011853019512 
