
Text conversion of header file \h820\optphotolab\Drones\DJI__Mavic_3M\viikki-field_calibration__20240523\reflec_3\DN_gravel__00125.asd
 -------------------------------------------------------------
                                                                                                                                                            
The instrument number was  18875/1
New ASD spectrum file: Program version = 6.04 file version = 7.00
Spectrum saved: 05/23/2024 at 17:17:01
VNIR integration time : 68
VNIR channel 1 wavelength = 350 wavelength step = 1
There was one sample per data value
xmin = 350 xmax= 2500
ymin= 0 ymax= 65535
The instrument digitizes spectral values to 16 bits
SWIR1 gain was 16 offset was 2051
SWIR2 gain was 16 offset was 2074
Join between VNIR and SWIR1 was 1000 nm
Join between SWIR1 and SWIR2 was 1800 nm
VNIR dark signal subtracted
100 dark measurements taken Thu May 23 17:12:29 2024
DCC value was 0
Data is not compared to a white reference
There was no foreoptic attached
Spectrum file is raw data with embedded reference
GPS-Latitude is S0
GPS-Longitude is E0
GPS-Altitude is 0
GPS-UTC is 00:00:00

Smart Detector
Serial#  0
Signal (A)  0.000E00
Dark (A)  0.000E00
Ref (A)  0.000E00
Status  0 - Uninitialized
Gain  E-4
Averaging  0
Temp (C)  0.0
Humid (%)  0.0

Wavelength	reflec_penels3-00125.asd
350	 16.3549757669338 
351	 16.6532340456143 
352	 16.408608540541 
353	 17.62330666845 
354	 19.6571931511392 
355	 20.9733897254408 
356	 21.1032486766025 
357	 21.4148966364831 
358	 22.5334751608002 
359	 24.1221126957548 
360	 24.9796857315626 
361	 25.8068092545229 
362	 27.1795910889568 
363	 28.0232547981208 
364	 29.121147694283 
365	 30.1578585978119 
366	 30.5247252028126 
367	 32.382052533094 
368	 33.7128439513864 
369	 33.8275009312682 
370	 34.6589929393245 
371	 36.6132003067877 
372	 37.8049547252853 
373	 36.9809690691494 
374	 38.5744133227437 
375	 39.9203122462852 
376	 40.0529278548234 
377	 39.6268392626149 
378	 39.4283985348248 
379	 39.2046081471629 
380	 38.9427048906304 
381	 39.8379012108953 
382	 39.5279899707797 
383	 38.9060998984808 
384	 39.7938508091381 
385	 40.3082393878392 
386	 40.185079374824 
387	 39.7881633071647 
388	 40.0763698328939 
389	 41.9303828700339 
390	 43.7706122132695 
391	 44.4470649509718 
392	 46.6848585437987 
393	 48.8806697137797 
394	 49.8625160508796 
395	 49.2282358928232 
396	 50.9996784435893 
397	 54.6338857200185 
398	 59.1576558858436 
399	 64.4098140300109 
400	 68.556614490867 
401	 71.593964399302 
402	 74.6810532501367 
403	 80.9305338756381 
404	 85.1807533708445 
405	 86.4032640238839 
406	 88.7504127619451 
407	 92.9628397364012 
408	 96.9377760146281 
409	 99.3525927618699 
410	 104.031521889972 
411	 107.461515626534 
412	 110.256966601092 
413	 115.425944276787 
414	 121.658439311618 
415	 126.961922211628 
416	 130.904624773902 
417	 136.121180400766 
418	 141.367236982635 
419	 146.221818613062 
420	 150.743494531673 
421	 156.256760445785 
422	 161.212096689083 
423	 165.182616380334 
424	 169.154599935938 
425	 174.287870302694 
426	 177.528657910457 
427	 177.981735243688 
428	 184.782245046219 
429	 189.998156409928 
430	 193.979791585656 
431	 201.715319126318 
432	 207.622908252943 
433	 215.92470111043 
434	 228.151953837993 
435	 238.484245853569 
436	 248.184656455022 
437	 258.273166703249 
438	 269.142612684958 
439	 277.218245174253 
440	 284.682715005046 
441	 292.855212192228 
442	 301.666909360547 
443	 312.839291259644 
444	 323.525073348039 
445	 331.461943524281 
446	 339.759239410414 
447	 348.983501209563 
448	 358.046808021349 
449	 365.088637517955 
450	 373.585099522707 
451	 381.778783128751 
452	 387.54082978445 
453	 389.11456188459 
454	 391.524447740821 
455	 394.277587016332 
456	 395.333058233646 
457	 397.455351763578 
458	 401.861145438025 
459	 406.63756747954 
460	 406.352085554399 
461	 404.195695975744 
462	 402.874315280866 
463	 403.613420633473 
464	 403.099895925953 
465	 400.049533844706 
466	 395.723882456158 
467	 393.191865351242 
468	 392.362066401233 
469	 391.298998035489 
470	 389.519961095413 
471	 390.986504592097 
472	 389.622297085815 
473	 387.854630296008 
474	 390.409169155634 
475	 390.495177601689 
476	 389.698128291902 
477	 389.343655016713 
478	 389.364535757473 
479	 391.806662921772 
480	 393.548469874514 
481	 391.163133849644 
482	 386.184256155188 
483	 380.654484695991 
484	 374.824295234325 
485	 367.644697453747 
486	 363.755226589671 
487	 360.867903146145 
488	 358.104019433952 
489	 361.541144905591 
490	 368.826206588059 
491	 376.262892721638 
492	 380.090051616164 
493	 383.467736562815 
494	 386.565366433348 
495	 390.57203727156 
496	 399.007725218094 
497	 403.796993405044 
498	 406.292734604735 
499	 410.394959804174 
500	 415.981171037917 
501	 422.292172106112 
502	 430.752300832955 
503	 444.640977230708 
504	 457.514426267835 
505	 473.275266798121 
506	 494.290165017653 
507	 511.839791791709 
508	 532.895773044331 
509	 556.853621643636 
510	 579.391012763979 
511	 605.788284597473 
512	 634.226880220966 
513	 662.144168013465 
514	 687.140825324854 
515	 711.239954929977 
516	 737.486695443931 
517	 769.207194701963 
518	 807.474145505865 
519	 855.735221291315 
520	 915.413623729807 
521	 985.435960413475 
522	 1057.54425956348 
523	 1124.42255746783 
524	 1182.12369135665 
525	 1234.40634775772 
526	 1286.82954713173 
527	 1341.22619288509 
528	 1397.46135252583 
529	 1466.07281583702 
530	 1540.65294701156 
531	 1609.78175156265 
532	 1655.85458327344 
533	 1697.69813712324 
534	 1739.77182277962 
535	 1781.86971014793 
536	 1832.52053457489 
537	 1875.00389279297 
538	 1901.77213686737 
539	 1919.16850558941 
540	 1938.46325228728 
541	 1960.85488391458 
542	 1986.69102093923 
543	 2026.42795681615 
544	 2068.38788525703 
545	 2106.19198638766 
546	 2138.34498642553 
547	 2165.74361225797 
548	 2190.88558005775 
549	 2216.50326458455 
550	 2245.48364033692 
551	 2275.32134554215 
552	 2301.12454608079 
553	 2318.6525980182 
554	 2337.76935273334 
555	 2350.75936669026 
556	 2350.21087793461 
557	 2331.1604456207 
558	 2305.99409550294 
559	 2282.39389123718 
560	 2265.80853679239 
561	 2260.23850124209 
562	 2256.41601722666 
563	 2245.15913239875 
564	 2218.7070069984 
565	 2184.39650701578 
566	 2142.33476409007 
567	 2093.35254123067 
568	 2043.16658538166 
569	 1989.25589442473 
570	 1933.33247104323 
571	 1880.41374449101 
572	 1842.10933167675 
573	 1817.44082177456 
574	 1799.66023155266 
575	 1776.02169624575 
576	 1748.94746495542 
577	 1724.11471647904 
578	 1706.94800117176 
579	 1694.67062645978 
580	 1690.75554246939 
581	 1694.6710422776 
582	 1701.73798482145 
583	 1703.75837923071 
584	 1694.11153917086 
585	 1670.9433971635 
586	 1642.50356840571 
587	 1603.44869979573 
588	 1549.70663793403 
589	 1482.40434908412 
590	 1430.46827609963 
591	 1411.24638560936 
592	 1419.74862886185 
593	 1421.60617790526 
594	 1411.94831386777 
595	 1397.12595564243 
596	 1386.65833626246 
597	 1381.08172038226 
598	 1374.11645511077 
599	 1363.12661092274 
600	 1349.20410917264 
601	 1334.4670092767 
602	 1323.02827706633 
603	 1317.03286145079 
604	 1314.41062288745 
605	 1306.96490772683 
606	 1292.36718833662 
607	 1272.14830005623 
608	 1250.31647983586 
609	 1226.40605916108 
610	 1201.56281435507 
611	 1179.8854645907 
612	 1158.64917492248 
613	 1135.60560314557 
614	 1110.05152628102 
615	 1086.55662832634 
616	 1063.6429207731 
617	 1043.15802399446 
618	 1029.5165779373 
619	 1024.04997396641 
620	 1018.21227150249 
621	 1005.86302320438 
622	 989.673478554489 
623	 970.658629022336 
624	 951.52615309877 
625	 935.489693378451 
626	 924.546261822737 
627	 913.792230119502 
628	 900.90106672345 
629	 887.447629124944 
630	 881.115083340946 
631	 878.920538363666 
632	 876.133921926659 
633	 872.722340726861 
634	 869.41440821147 
635	 864.757587096094 
636	 856.261045383993 
637	 847.047601703189 
638	 834.805931580546 
639	 818.050901390936 
640	 798.042978295704 
641	 774.458018954477 
642	 752.806570805988 
643	 737.63666520953 
644	 719.049682364152 
645	 697.842931839576 
646	 674.786834336375 
647	 650.306922672238 
648	 628.614839763237 
649	 609.601458617298 
650	 594.377688897026 
651	 591.190529031767 
652	 585.117684527839 
653	 576.132834553437 
654	 569.550897153776 
655	 551.62344362816 
656	 525.052762307456 
657	 501.937751148306 
658	 504.346078029918 
659	 512.471799174038 
660	 515.387828197343 
661	 508.451081619535 
662	 499.913627824562 
663	 488.749501965537 
664	 476.536596288173 
665	 466.298226222313 
666	 456.167106889538 
667	 448.200617504723 
668	 442.594253800006 
669	 435.24202880136 
670	 429.38895707737 
671	 424.718785799308 
672	 420.433830674209 
673	 419.168242876679 
674	 419.408804063446 
675	 419.944317333461 
676	 420.168698468605 
677	 421.988854090517 
678	 424.919172306168 
679	 428.350863954435 
680	 432.20350533464 
681	 439.000875531809 
682	 448.085992373756 
683	 457.655225034049 
684	 468.591874422559 
685	 479.955703428949 
686	 485.758113477534 
687	 475.79722043288 
688	 477.761680487334 
689	 506.730273203479 
690	 565.747349268835 
691	 636.873640124824 
692	 717.875205722846 
693	 805.463328611182 
694	 897.876974303661 
695	 1001.06353356023 
696	 1124.55287582072 
697	 1267.65669041667 
698	 1416.66291953218 
699	 1554.10822709458 
700	 1686.46326082772 
701	 1827.08816401194 
702	 1986.29303791978 
703	 2164.98143790021 
704	 2361.36755450744 
705	 2569.41233825288 
706	 2768.07713941386 
707	 2965.0989513526 
708	 3166.40492766197 
709	 3370.07212611208 
710	 3585.82126114059 
711	 3806.2948023766 
712	 4022.89251150331 
713	 4241.64690540951 
714	 4456.24002167004 
715	 4636.97600164513 
716	 4735.01002061502 
717	 4668.56242279991 
718	 4522.15483734901 
719	 4439.74472693505 
720	 4612.18960584893 
721	 5083.19544009684 
722	 5659.67133395821 
723	 6093.18866860721 
724	 6201.86154442609 
725	 6289.23914600476 
726	 6494.3521093343 
727	 6819.03758342473 
728	 7124.90799414881 
729	 7424.2146172379 
730	 7754.37968949891 
731	 8158.13858132217 
732	 8682.92017219121 
733	 9301.05527948901 
734	 9927.90918266506 
735	 10389.1688711821 
736	 10725.8280382151 
737	 11010.6982983531 
738	 11322.6706050685 
739	 11611.657706804 
740	 11894.7448188241 
741	 12185.0662475118 
742	 12481.9466819038 
743	 12800.7249514459 
744	 13103.5515198982 
745	 13356.9819782573 
746	 13579.9838037101 
747	 13780.4153283878 
748	 13947.5043068068 
749	 14065.1711087986 
750	 14148.9096411586 
751	 14228.5158394895 
752	 14328.0308253169 
753	 14460.785417598 
754	 14585.1354028533 
755	 14683.2964685502 
756	 14732.8257684461 
757	 14755.1651883951 
758	 14248.6481185394 
759	 12540.0738533316 
760	 9372.94346445051 
761	 6558.4341501538 
762	 5334.5294853239 
763	 5674.14762095976 
764	 6436.07063194949 
765	 7641.072933081 
766	 9271.63612037859 
767	 11133.3148602717 
768	 12688.4528140024 
769	 13762.7354502199 
770	 14384.7944329091 
771	 14700.3783009238 
772	 14864.9417193425 
773	 14945.0774890259 
774	 14978.283759244 
775	 14980.3542764653 
776	 14982.6375240919 
777	 14976.7708645713 
778	 14952.5369568087 
779	 14905.6429355161 
780	 14869.00640271 
781	 14846.0902023242 
782	 14823.6987855354 
783	 14767.054161642 
784	 14696.3204207013 
785	 14620.5018368442 
786	 14537.1436927977 
787	 14413.9971724334 
788	 14244.1150066971 
789	 14048.465724067 
790	 13871.1047513439 
791	 13727.5574720753 
792	 13615.2578794305 
793	 13528.8535841796 
794	 13467.8522916109 
795	 13410.7213098258 
796	 13358.4129467805 
797	 13318.8534293888 
798	 13302.6327816271 
799	 13245.9674157625 
800	 13134.0306081209 
801	 12990.8618545047 
802	 12868.8408877605 
803	 12775.8293296621 
804	 12715.2965328673 
805	 12689.735888374 
806	 12683.5166044756 
807	 12646.1292169215 
808	 12539.0108968613 
809	 12358.217916988 
810	 12139.3892452542 
811	 11869.4322343643 
812	 11513.2472258551 
813	 11021.4427647664 
814	 10434.904346682 
815	 9843.33446897373 
816	 9363.97583594432 
817	 9077.69766207503 
818	 8996.3546280507 
819	 9092.61481528809 
820	 9297.98664948624 
821	 9371.58220259578 
822	 9268.32940775792 
823	 9078.13560703923 
824	 9043.90815989867 
825	 9207.74325719121 
826	 9413.19008757237 
827	 9470.61951864953 
828	 9331.01973335697 
829	 9164.28074527152 
830	 9058.74202236124 
831	 9034.78465141777 
832	 9033.97695840736 
833	 9054.17448840702 
834	 9100.84845858234 
835	 9180.05609297308 
836	 9268.26231659326 
837	 9335.70650976668 
838	 9367.00168214842 
839	 9369.61003499969 
840	 9354.68737112816 
841	 9323.05338330772 
842	 9274.53357245861 
843	 9212.92636557001 
844	 9153.69322102572 
845	 9098.56217016574 
846	 9039.44759470178 
847	 8960.36598101269 
848	 8839.35986918563 
849	 8683.3136325655 
850	 8519.59333644656 
851	 8369.09222734032 
852	 8209.92812729681 
853	 8040.3762341374 
854	 7887.73033238801 
855	 7805.47824462097 
856	 7811.64183356514 
857	 7890.22465254914 
858	 7988.0841566859 
859	 8019.62660625544 
860	 7985.25114993838 
861	 7915.23764632611 
862	 7841.84864974649 
863	 7741.95318915562 
864	 7604.52926841473 
865	 7432.6919857281 
866	 7256.31904826935 
867	 7129.51014415793 
868	 7074.27084578451 
869	 7081.51352310744 
870	 7110.17892165364 
871	 7115.66971810298 
872	 7078.65362795913 
873	 7007.15962579436 
874	 6929.72494966726 
875	 6852.3354824731 
876	 6776.49011881188 
877	 6702.73415440675 
878	 6631.7542451606 
879	 6556.60396402967 
880	 6474.78727278249 
881	 6394.87613699298 
882	 6322.73029783109 
883	 6256.64656313074 
884	 6191.31608145311 
885	 6120.03712910755 
886	 6041.54342835685 
887	 5961.5274488384 
888	 5885.27371462378 
889	 5805.30474213177 
890	 5715.46128477117 
891	 5603.70467970719 
892	 5455.42677708244 
893	 5259.74801339447 
894	 5023.72640961914 
895	 4760.74740009879 
896	 4488.72510986264 
897	 4225.02826521171 
898	 3996.51195996195 
899	 3822.93981170654 
900	 3714.43509687002 
901	 3678.95650064033 
902	 3701.30079548823 
903	 3756.1003590078 
904	 3811.50015935335 
905	 3818.40292911899 
906	 3765.1425687853 
907	 3657.44069686884 
908	 3510.29900832278 
909	 3367.3123583051 
910	 3252.90555724934 
911	 3174.27593863116 
912	 3117.6778253288 
913	 3071.41415382952 
914	 3031.03155386873 
915	 2997.01278330879 
916	 2972.34594241231 
917	 2970.1075013443 
918	 2992.09212214847 
919	 3029.74711793967 
920	 3061.48302540556 
921	 3077.42682604472 
922	 3069.31756463235 
923	 3030.68173044835 
924	 2955.87324447705 
925	 2849.19285283363 
926	 2712.28110454036 
927	 2543.8480047424 
928	 2338.47129301884 
929	 2101.06768445652 
930	 1841.85261284847 
931	 1576.7931262503 
932	 1332.01412088564 
933	 1130.49057784977 
934	 984.666889430782 
935	 895.911025655373 
936	 858.338064023168 
937	 867.562418457103 
938	 910.19202503578 
939	 963.652611295316 
940	 1007.27298554359 
941	 1032.62947019866 
942	 1037.24319564905 
943	 1022.85837935179 
944	 992.321335782786 
945	 953.914814184397 
946	 919.236656149881 
947	 901.366061336388 
948	 894.762927273528 
949	 895.928273016782 
950	 900.553494350537 
951	 903.525214846935 
952	 905.673121595777 
953	 903.865666370059 
954	 899.920450568534 
955	 903.767958969303 
956	 906.759426943662 
957	 913.640463936597 
958	 926.4402601535 
959	 937.895563218163 
960	 951.811358288399 
961	 970.802103117709 
962	 994.714393608807 
963	 1019.11985274321 
964	 1047.04265476468 
965	 1079.86264190681 
966	 1116.38763773646 
967	 1151.83183420656 
968	 1183.93573665708 
969	 1210.27046588503 
970	 1228.43023709838 
971	 1235.99572066022 
972	 1231.1391054239 
973	 1216.87043794012 
974	 1197.02829640249 
975	 1173.97381469583 
976	 1154.39777530812 
977	 1140.51093871524 
978	 1132.77646840765 
979	 1131.1118708303 
980	 1136.02205269418 
981	 1142.24717216697 
982	 1146.81511373936 
983	 1153.09041103982 
984	 1156.99865280888 
985	 1157.53313604037 
986	 1155.13315729579 
987	 1151.21688055096 
988	 1145.31853536357 
989	 1136.70294820441 
990	 1125.34521453045 
991	 1112.41946042572 
992	 1100.40166739505 
993	 1087.42105290671 
994	 1071.93534199734 
995	 1054.44418497046 
996	 1038.56754090819 
997	 1020.97474696929 
998	 1001.42089031291 
999	 984.492702350881 
1000	 965.543396823848 
1001	 3567.83086062936 
1002	 3590.51379620276 
1003	 3609.92795193904 
1004	 3630.32866360346 
1005	 3648.45355628125 
1006	 3673.4272017144 
1007	 3709.56439480491 
1008	 3743.41912187567 
1009	 3776.68554714656 
1010	 3806.29650768198 
1011	 3820.00732304273 
1012	 3844.21753357443 
1013	 3880.03886909407 
1014	 3920.10202569403 
1015	 3957.27929034124 
1016	 4006.58756442332 
1017	 4036.08934992152 
1018	 4050.92331478832 
1019	 4073.56786589007 
1020	 4095.70911249222 
1021	 4113.57085698534 
1022	 4149.26203801168 
1023	 4188.86381001151 
1024	 4221.25620178941 
1025	 4269.3895438616 
1026	 4326.99867359876 
1027	 4362.34456963367 
1028	 4392.90010708373 
1029	 4430.28278020887 
1030	 4462.78350731169 
1031	 4480.39684884242 
1032	 4514.79230051699 
1033	 4571.01706352379 
1034	 4613.59698539654 
1035	 4654.37293079563 
1036	 4711.44207890238 
1037	 4746.49215998012 
1038	 4775.32713174866 
1039	 4819.22528867631 
1040	 4839.54408036325 
1041	 4861.77411915836 
1042	 4886.18246341847 
1043	 4911.3073118533 
1044	 4931.04258928097 
1045	 4973.35297146069 
1046	 5000.95505273927 
1047	 5017.58394706792 
1048	 5043.44306743903 
1049	 5042.81623336583 
1050	 5047.29317746218 
1051	 5077.51458902571 
1052	 5095.12010735471 
1053	 5116.84679738616 
1054	 5130.8578052519 
1055	 5128.45635528378 
1056	 5099.21736259528 
1057	 5091.26367487918 
1058	 5077.68163510594 
1059	 5073.04240471397 
1060	 5085.10186863977 
1061	 5097.58115833609 
1062	 5108.33394474655 
1063	 5102.92786394316 
1064	 5085.90114250253 
1065	 5083.38337209051 
1066	 5070.44338171897 
1067	 5054.77155452373 
1068	 5061.95642191688 
1069	 5091.90101132672 
1070	 5111.16848984706 
1071	 5134.9458942642 
1072	 5167.10946600314 
1073	 5204.38010253219 
1074	 5229.14511471056 
1075	 5255.51897072816 
1076	 5284.83061304222 
1077	 5291.67160300049 
1078	 5290.04516811366 
1079	 5289.53522334165 
1080	 5295.13644421757 
1081	 5296.94309920222 
1082	 5297.31374719811 
1083	 5300.6080068938 
1084	 5291.55453941289 
1085	 5302.72588267686 
1086	 5328.0767046944 
1087	 5354.2052865786 
1088	 5393.6966438466 
1089	 5434.14848281608 
1090	 5434.02156550296 
1091	 5425.15022126349 
1092	 5387.33984956694 
1093	 5331.79710013291 
1094	 5298.12948434942 
1095	 5273.11036224994 
1096	 5239.79441644438 
1097	 5214.81044748191 
1098	 5178.31533427262 
1099	 5128.3381986338 
1100	 5086.59073499311 
1101	 5044.31969895023 
1102	 5006.63037426897 
1103	 4973.22557290444 
1104	 4917.9346621651 
1105	 4851.41259268958 
1106	 4788.34178940357 
1107	 4729.47545507729 
1108	 4636.65466525447 
1109	 4490.92570674892 
1110	 4337.71554543223 
1111	 4098.95289309447 
1112	 3769.49437413984 
1113	 3439.45080663089 
1114	 3000.8124900651 
1115	 2646.93659876129 
1116	 2285.6899027035 
1117	 1969.29001299745 
1118	 1747.62118492598 
1119	 1575.99979919823 
1120	 1449.68439239113 
1121	 1342.03940061194 
1122	 1258.42970185042 
1123	 1205.10507152092 
1124	 1164.8458952027 
1125	 1128.81264889973 
1126	 1151.59285427921 
1127	 1209.01261383297 
1128	 1288.3390008516 
1129	 1499.32072411887 
1130	 1586.31002356285 
1131	 1635.45293005902 
1132	 1651.25880269686 
1133	 1574.60995334055 
1134	 1513.15801642692 
1135	 1606.93039715705 
1136	 1790.80711693652 
1137	 1961.03090119149 
1138	 2318.96269275485 
1139	 2438.54198835739 
1140	 2497.24213542739 
1141	 2455.82092753269 
1142	 2230.63414084264 
1143	 2079.8733499923 
1144	 1791.05022698567 
1145	 1667.10052471646 
1146	 1620.25658910418 
1147	 1614.17044937803 
1148	 1730.36257676331 
1149	 1882.64680145892 
1150	 1979.38238524176 
1151	 2075.08234562705 
1152	 2191.49946410269 
1153	 2265.14165666383 
1154	 2420.08911845008 
1155	 2655.96678762691 
1156	 2850.03446242494 
1157	 3065.80518373807 
1158	 3267.25089471832 
1159	 3447.09508935075 
1160	 3637.972023496 
1161	 3871.7572455654 
1162	 4046.62744485659 
1163	 4193.62336912902 
1164	 4325.18407638771 
1165	 4440.17118549598 
1166	 4499.69231478439 
1167	 4606.48963490812 
1168	 4745.28337185079 
1169	 4832.09220992372 
1170	 4924.46549167383 
1171	 4967.81988786431 
1172	 4939.84587263445 
1173	 4950.32308387542 
1174	 4943.89039973701 
1175	 4954.10290320523 
1176	 5016.01490547988 
1177	 5022.30075292955 
1178	 5004.81671624144 
1179	 4974.67603310622 
1180	 4934.15717961296 
1181	 4837.65641843501 
1182	 4815.12685578481 
1183	 4813.46457573384 
1184	 4826.5988698643 
1185	 4884.95139540904 
1186	 4915.08877713352 
1187	 4924.01315151146 
1188	 4976.57340556134 
1189	 5049.40574429382 
1190	 5119.21898037017 
1191	 5255.72217791307 
1192	 5323.37092328156 
1193	 5367.17592963956 
1194	 5377.71348889722 
1195	 5355.41555143071 
1196	 5277.44889252075 
1197	 5236.09589521891 
1198	 5168.26956256317 
1199	 5136.49693707324 
1200	 5123.83842761672 
1201	 5117.29244085189 
1202	 5103.81248298997 
1203	 5136.26771099557 
1204	 5212.6215595019 
1205	 5270.52419179046 
1206	 5369.56911250143 
1207	 5432.35855629483 
1208	 5465.21464740557 
1209	 5503.54844020609 
1210	 5517.85522847463 
1211	 5555.73531018611 
1212	 5602.94515612936 
1213	 5651.11577307 
1214	 5722.58397757495 
1215	 5831.07691940054 
1216	 5899.87576923676 
1217	 5974.00440476822 
1218	 6023.82986112688 
1219	 6040.29011227081 
1220	 6071.02998168389 
1221	 6089.03484664595 
1222	 6123.15923607116 
1223	 6168.17949501247 
1224	 6208.20497836539 
1225	 6250.52742087406 
1226	 6298.81062899798 
1227	 6351.42135229997 
1228	 6394.55853779797 
1229	 6451.22222369922 
1230	 6522.71125740227 
1231	 6579.95105134019 
1232	 6644.12511291062 
1233	 6682.04953857584 
1234	 6703.97946909451 
1235	 6726.85885117052 
1236	 6732.49456816476 
1237	 6743.44958190237 
1238	 6760.44062818726 
1239	 6766.17369706271 
1240	 6763.40818088275 
1241	 6758.00850669345 
1242	 6739.97996434014 
1243	 6731.60065186623 
1244	 6719.89529417326 
1245	 6719.23078939419 
1246	 6724.44046456114 
1247	 6728.36844202352 
1248	 6710.44889476271 
1249	 6677.28461457441 
1250	 6651.03891352332 
1251	 6611.41147000267 
1252	 6578.46771455533 
1253	 6565.53604702976 
1254	 6522.20537277501 
1255	 6462.73216638568 
1256	 6397.8731140518 
1257	 6329.94921821006 
1258	 6234.377138091 
1259	 6112.00402908417 
1260	 5997.4532702792 
1261	 5857.51695827533 
1262	 5728.20894879209 
1263	 5607.9004160253 
1264	 5486.7032814469 
1265	 5378.0994725984 
1266	 5247.03713566827 
1267	 5195.61903539683 
1268	 5158.40850609849 
1269	 5207.06324312314 
1270	 5352.36460678638 
1271	 5468.74568272974 
1272	 5658.79464957936 
1273	 5784.14161663937 
1274	 5890.62678035896 
1275	 5977.34268687339 
1276	 6052.20768739361 
1277	 6091.51940422585 
1278	 6083.16678592512 
1279	 6089.29123138514 
1280	 6062.3850176995 
1281	 6055.48598593491 
1282	 6070.62518348706 
1283	 6097.90395283624 
1284	 6123.34608715628 
1285	 6173.65666632355 
1286	 6174.14825117927 
1287	 6161.93090811587 
1288	 6132.98526278892 
1289	 6057.43738651764 
1290	 6014.27067267431 
1291	 5984.81025083549 
1292	 5938.7654473133 
1293	 5897.35679687823 
1294	 5841.0190178021 
1295	 5768.20949657134 
1296	 5691.0116732666 
1297	 5604.75523273156 
1298	 5519.71583986937 
1299	 5430.18882633739 
1300	 5332.33564778972 
1301	 5241.04062289013 
1302	 5150.78333762366 
1303	 5057.3474419856 
1304	 4971.24304262769 
1305	 4887.07851037275 
1306	 4811.64341124246 
1307	 4723.61869073475 
1308	 4636.82394481667 
1309	 4539.13077625816 
1310	 4424.01944034921 
1311	 4320.98262345668 
1312	 4206.3831532119 
1313	 4119.55773589409 
1314	 4047.54894113755 
1315	 3982.26353192578 
1316	 3951.02620835658 
1317	 3893.8611413803 
1318	 3829.78718784345 
1319	 3760.62662130689 
1320	 3682.62034927923 
1321	 3617.73086895398 
1322	 3567.24203982094 
1323	 3512.98189831242 
1324	 3425.5018051612 
1325	 3341.87050502505 
1326	 3189.31910473064 
1327	 2975.69636098477 
1328	 2781.86798257653 
1329	 2514.86301767886 
1330	 2347.94551433489 
1331	 2200.82597318433 
1332	 2116.12339198495 
1333	 2120.55332323233 
1334	 2102.59810785169 
1335	 2139.94296550315 
1336	 2136.53430803429 
1337	 2133.99714057304 
1338	 2095.25177533508 
1339	 2046.75367550581 
1340	 1952.00016781495 
1341	 1821.22965705364 
1342	 1660.13671452922 
1343	 1457.29484146758 
1344	 1237.82052556898 
1345	 1033.95504219091 
1346	 805.191412257265 
1347	 619.630212111434 
1348	 444.537481263927 
1349	 308.148427874903 
1350	 194.712088081884 
1351	 113.168466975544 
1352	 78.2833231403387 
1353	 37.1759646814455 
1354	 21.6907073037006 
1355	 1.36653896836512 
1356	-17.7006301102872 
1357	-27.3971725524469 
1358	-26.695451334532 
1359	-25.5719385480492 
1360	-11.8930636681471 
1361	-8.30534372372535 
1362	-8.54731054591964 
1363	-9.94668557661011 
1364	-11.9141476440202 
1365	-13.4629287918199 
1366	-17.8899697594167 
1367	-15.4640978455687 
1368	-18.2345517454592 
1369	-30.1001080918837 
1370	-30.0737611944701 
1371	-24.564318398122 
1372	-17.0001786898934 
1373	-3.32441592872112 
1374	 8.15740755447733 
1375	 28.0826901334861 
1376	 32.8572547747191 
1377	 28.8080308763555 
1378	 28.7900844365604 
1379	 23.3106600766369 
1380	 14.1851294897908 
1381	-1.97839612545314E-03 
1382	-3.2556926773331 
1383	-11.0884300173465 
1384	-10.6114107196975 
1385	 9.98152213932634 
1386	 19.0493928766258 
1387	 20.8944768720046 
1388	 29.7789384997918 
1389	 17.9336744955468 
1390	 6.06248203254483 
1391	-0.219046341935145 
1392	-11.2382523719726 
1393	-14.5952531498811 
1394	-8.9696233813024 
1395	-3.95164578264992 
1396	 4.18318169033249 
1397	 10.3983813949943 
1398	 17.5304397305713 
1399	 21.7699489023193 
1400	 25.0021023376875 
1401	 28.5377537855421 
1402	 34.6947520475634 
1403	 33.3572013734105 
1404	 21.7410238190697 
1405	 19.0476920688147 
1406	 16.3596471401801 
1407	 17.4483458730489 
1408	 29.8539097721005 
1409	 35.9057082663081 
1410	 41.4993772102595 
1411	 39.6312683331276 
1412	 36.8574994125731 
1413	 29.2196035920853 
1414	 24.5561171894087 
1415	 27.249467136162 
1416	 25.959973001719 
1417	 26.7971756646775 
1418	 32.0948381147288 
1419	 36.9274315204168 
1420	 41.9168226051863 
1421	 53.4417639659384 
1422	 61.0873094675967 
1423	 65.6822857621676 
1424	 70.9166476837378 
1425	 81.5946915310764 
1426	 83.2453313007595 
1427	 71.0973032063545 
1428	 71.1754412814079 
1429	 78.6296578347611 
1430	 77.3112087720899 
1431	 81.933183226098 
1432	 80.6094604207938 
1433	 60.5617918653456 
1434	 53.6624771169355 
1435	 56.8179800621689 
1436	 52.9943165918421 
1437	 46.0284758614036 
1438	 48.698053275478 
1439	 41.5789439275195 
1440	 37.8234080619277 
1441	 44.8845892891898 
1442	 55.225654968892 
1443	 69.9765980676113 
1444	 83.8816113204103 
1445	 95.2287525920379 
1446	 105.165986644485 
1447	 114.50955710289 
1448	 116.11930806672 
1449	 132.388629709472 
1450	 155.092144294074 
1451	 177.233350606356 
1452	 215.295924995413 
1453	 236.279437981025 
1454	 246.39984282656 
1455	 258.434707194859 
1456	 263.25629388338 
1457	 273.240559252503 
1458	 292.684556240669 
1459	 297.2123330454 
1460	 295.452494678887 
1461	 290.797364607006 
1462	 273.107888554126 
1463	 261.345834271028 
1464	 252.770521625041 
1465	 241.224582155303 
1466	 224.2541384052 
1467	 212.339817731876 
1468	 205.240373608913 
1469	 191.401022201312 
1470	 178.536828536248 
1471	 184.803620334621 
1472	 182.295064487061 
1473	 196.591599053461 
1474	 214.574882298212 
1475	 245.100033376037 
1476	 262.629073671993 
1477	 286.201088382929 
1478	 293.50078310822 
1479	 281.661475532987 
1480	 291.706035254479 
1481	 300.809653856555 
1482	 320.849284872342 
1483	 360.000512831133 
1484	 388.459137613136 
1485	 415.85395790544 
1486	 443.004490010317 
1487	 461.194655956844 
1488	 496.068527212699 
1489	 540.854349817119 
1490	 583.256870656683 
1491	 643.859699464673 
1492	 685.439999495999 
1493	 713.216998081703 
1494	 745.100821654574 
1495	 762.181902326889 
1496	 796.352709435382 
1497	 852.938661464528 
1498	 888.700740958304 
1499	 929.02772357492 
1500	 954.616617533638 
1501	 948.772635237893 
1502	 956.840763673316 
1503	 960.845298487904 
1504	 972.613428765655 
1505	 1001.4808837871 
1506	 1045.38304758021 
1507	 1095.49143231916 
1508	 1139.53328225249 
1509	 1165.31942620195 
1510	 1176.25150598158 
1511	 1192.63931894673 
1512	 1196.67995790844 
1513	 1212.30121157379 
1514	 1231.13350233859 
1515	 1255.44378487298 
1516	 1283.51756892588 
1517	 1311.86113743871 
1518	 1346.565823335 
1519	 1381.33108584263 
1520	 1420.7315770225 
1521	 1448.12814446144 
1522	 1477.61763959597 
1523	 1494.61856491217 
1524	 1490.11039453566 
1525	 1502.12337622271 
1526	 1515.14735178943 
1527	 1531.90987575755 
1528	 1562.10060735744 
1529	 1579.00088483651 
1530	 1588.04392571076 
1531	 1601.40520425144 
1532	 1606.08688426541 
1533	 1621.72261793779 
1534	 1654.44312192264 
1535	 1671.28310918008 
1536	 1685.83132893414 
1537	 1696.34975072603 
1538	 1687.7657757687 
1539	 1693.30860037798 
1540	 1706.17535226915 
1541	 1718.99095941568 
1542	 1742.94926531203 
1543	 1758.22036797376 
1544	 1761.47825616202 
1545	 1775.85930585879 
1546	 1798.31869644377 
1547	 1813.18104483968 
1548	 1827.6040568131 
1549	 1850.73982803194 
1550	 1857.17660190415 
1551	 1847.94657561804 
1552	 1852.88604099352 
1553	 1856.78473929397 
1554	 1867.70448343368 
1555	 1887.04075824312 
1556	 1899.9499512749 
1557	 1916.32658192818 
1558	 1923.00301530843 
1559	 1924.89789932159 
1560	 1924.02462480583 
1561	 1914.95429977687 
1562	 1912.20565999617 
1563	 1910.92896668319 
1564	 1905.99034834032 
1565	 1904.59646105693 
1566	 1894.08024051538 
1567	 1879.56012400326 
1568	 1857.47579793046 
1569	 1822.2957094978 
1570	 1798.7198751715 
1571	 1769.04791896646 
1572	 1753.39280002188 
1573	 1745.0328890945 
1574	 1747.92137399767 
1575	 1762.34535468121 
1576	 1776.91852526841 
1577	 1805.62018079327 
1578	 1827.07628717671 
1579	 1847.63884507856 
1580	 1866.02400333086 
1581	 1881.84311960838 
1582	 1899.22137118762 
1583	 1914.63681909217 
1584	 1932.32035288372 
1585	 1956.19312292824 
1586	 1972.52408853138 
1587	 1985.78651992704 
1588	 1996.77653481136 
1589	 2002.95549583319 
1590	 2008.48039786181 
1591	 2009.58876462683 
1592	 2015.20612595062 
1593	 2024.96324010674 
1594	 2027.47463502471 
1595	 2031.47380889856 
1596	 2031.57245169454 
1597	 2029.91297189514 
1598	 2017.29856320081 
1599	 1989.9455249 
1600	 1971.24738928312 
1601	 1939.24702830231 
1602	 1923.86668893753 
1603	 1920.52947680626 
1604	 1926.15284759483 
1605	 1955.68717545421 
1606	 1977.24578289496 
1607	 1985.35136781628 
1608	 2002.29613308869 
1609	 1994.93193949554 
1610	 1975.69683825244 
1611	 1982.74471861298 
1612	 2005.53048251286 
1613	 2043.01052010938 
1614	 2084.55460103048 
1615	 2108.23277302586 
1616	 2116.74736971661 
1617	 2109.35026161507 
1618	 2113.92025951089 
1619	 2139.89480749935 
1620	 2156.53333801581 
1621	 2171.77918766593 
1622	 2192.91964320751 
1623	 2202.84323471633 
1624	 2203.9565467843 
1625	 2204.32925561852 
1626	 2204.82411858023 
1627	 2197.23553494431 
1628	 2175.75313401558 
1629	 2168.74220183581 
1630	 2165.32356390068 
1631	 2157.52343914435 
1632	 2156.60073886014 
1633	 2148.73458792272 
1634	 2132.2558886227 
1635	 2121.27068329848 
1636	 2113.93876080224 
1637	 2099.0779527769 
1638	 2078.05404711663 
1639	 2068.17495602347 
1640	 2059.1877955124 
1641	 2049.51914039025 
1642	 2046.91740228513 
1643	 2041.66563989841 
1644	 2029.9208634465 
1645	 2026.88316301067 
1646	 2033.05141196545 
1647	 2031.73993061564 
1648	 2026.96909941844 
1649	 2028.09369211816 
1650	 2028.76174904542 
1651	 2032.83298795636 
1652	 2042.57784824068 
1653	 2052.01102760667 
1654	 2067.19474827077 
1655	 2067.80297562184 
1656	 2062.93200865355 
1657	 2058.27773042381 
1658	 2040.07994905983 
1659	 2035.58530759736 
1660	 2045.36823423674 
1661	 2040.82086217655 
1662	 2036.22964224906 
1663	 2023.47370615381 
1664	 1998.62605293487 
1665	 1975.14506102475 
1666	 1938.64911836151 
1667	 1924.10397860907 
1668	 1913.39980540324 
1669	 1914.85721940315 
1670	 1948.92550521604 
1671	 1953.64326581587 
1672	 1946.37106543793 
1673	 1948.10080644228 
1674	 1943.13902786794 
1675	 1930.97572999798 
1676	 1925.12532154756 
1677	 1911.66556932168 
1678	 1876.78276500408 
1679	 1863.58019369815 
1680	 1863.75048140477 
1681	 1857.40910191903 
1682	 1852.23594660905 
1683	 1850.32125119086 
1684	 1853.39401944778 
1685	 1847.48641291892 
1686	 1848.54744004282 
1687	 1834.60357254744 
1688	 1795.91313209479 
1689	 1777.48547770645 
1690	 1760.28067869413 
1691	 1746.30419274366 
1692	 1745.31593972221 
1693	 1743.84829334106 
1694	 1742.73599017793 
1695	 1739.18005696334 
1696	 1738.97020535205 
1697	 1730.86943881473 
1698	 1718.51697831228 
1699	 1705.75151395812 
1700	 1691.84302886364 
1701	 1678.85403944568 
1702	 1661.93721097967 
1703	 1641.76830615186 
1704	 1622.20496861131 
1705	 1597.81896698513 
1706	 1564.22433371745 
1707	 1541.67735694126 
1708	 1513.63590641604 
1709	 1510.12216737588 
1710	 1536.06172001003 
1711	 1534.27623046356 
1712	 1531.02086755052 
1713	 1527.53874275409 
1714	 1503.37064941198 
1715	 1491.23897651355 
1716	 1494.51778170905 
1717	 1490.33771248476 
1718	 1486.46059520511 
1719	 1473.90938809096 
1720	 1459.44378071042 
1721	 1442.89631798414 
1722	 1409.37586580096 
1723	 1386.83293186053 
1724	 1371.87394239805 
1725	 1351.86657720665 
1726	 1347.14086324804 
1727	 1341.9559135563 
1728	 1326.82628922969 
1729	 1314.81735344544 
1730	 1295.07474081938 
1731	 1262.15030485815 
1732	 1239.29758310532 
1733	 1230.9386894125 
1734	 1212.0597806271 
1735	 1202.19834216413 
1736	 1193.82686282796 
1737	 1161.39377992433 
1738	 1139.72413937131 
1739	 1125.29953723101 
1740	 1111.92659906342 
1741	 1122.30425482082 
1742	 1129.08055640537 
1743	 1122.7673442782 
1744	 1112.79750471799 
1745	 1085.16467302827 
1746	 1055.31008112342 
1747	 1043.48030971372 
1748	 1052.47825679848 
1749	 1076.51890540046 
1750	 1093.9231672911 
1751	 1092.93267527073 
1752	 1075.08239909638 
1753	 1050.71513274904 
1754	 1019.78613425039 
1755	 981.683197511788 
1756	 963.88040320438 
1757	 953.158613480252 
1758	 940.174461365397 
1759	 948.769039527153 
1760	 954.296991919626 
1761	 939.364835354951 
1762	 925.007314411906 
1763	 901.676552431244 
1764	 859.054994222484 
1765	 820.601685684067 
1766	 794.216501445781 
1767	 785.67262001492 
1768	 784.465527191804 
1769	 775.597987470674 
1770	 757.988096305232 
1771	 732.840856260298 
1772	 717.719240807976 
1773	 695.32626917557 
1774	 665.725250426354 
1775	 642.636535351345 
1776	 607.221758172618 
1777	 575.276492155392 
1778	 562.500488546734 
1779	 544.919391079819 
1780	 524.61984699832 
1781	 518.074331302762 
1782	 505.346773484664 
1783	 486.682061768559 
1784	 472.002342706595 
1785	 463.787112291408 
1786	 461.318410424286 
1787	 454.197871786213 
1788	 452.385281850308 
1789	 429.908821270443 
1790	 396.795950080763 
1791	 346.482431357488 
1792	 306.353966306789 
1793	 258.026496165215 
1794	 231.378073259637 
1795	 220.267001978011 
1796	 212.62035035082 
1797	 216.320708323128 
1798	 209.217173024387 
1799	 192.641559200415 
1800	 169.350857022394 
1801	 451.576006997549 
1802	 387.272057823555 
1803	 408.312005063046 
1804	 375.114416438047 
1805	 340.639286135055 
1806	 311.840009201113 
1807	 280.873904482627 
1808	 240.474594632869 
1809	 213.86688721423 
1810	 221.662786208118 
1811	 197.062643715889 
1812	 163.78088600678 
1813	 127.437573360825 
1814	 59.9148017078565 
1815	 24.9802011522107 
1816	-13.9794747498195 
1817	-9.02519240309551 
1818	 8.64921541571688 
1819	 25.3621372786567 
1820	 26.1900383191432 
1821	 21.2905769453123 
1822	 20.4075209257678 
1823	 7.09392957743084 
1824	 5.45835197325038 
1825	 16.1026651714163 
1826	 16.9035154459489 
1827	 22.5986037626677 
1828	 24.5160362832735 
1829	-18.1928057367118 
1830	-52.5881174344811 
1831	-65.6028987459497 
1832	-83.1724202171815 
1833	-91.0578567233101 
1834	-73.7193431488117 
1835	-57.5047434205099 
1836	-28.848864750241 
1837	-28.3134841730009 
1838	-31.292654861318 
1839	-4.55856418746384 
1840	-24.0767829946984 
1841	-56.2217900254135 
1842	-80.0241256235374 
1843	-118.63047089353 
1844	-139.37770131423 
1845	-177.161876826141 
1846	-147.044012273038 
1847	-82.8697041353372 
1848	-73.0243743847238 
1849	-48.6504500441922 
1850	-52.0357269569334 
1851	-55.4943645607551 
1852	-82.5035737898949 
1853	-71.5149000608702 
1854	-35.3647849597818 
1855	-37.928391647426 
1856	-45.2505371758076 
1857	-79.6917281079217 
1858	-99.8849011938368 
1859	-94.8684051372358 
1860	-123.935991033945 
1861	-140.256173317543 
1862	-139.424480231011 
1863	-161.410168438913 
1864	-145.550232992013 
1865	-86.2657139951399 
1866	-13.7091171667711 
1867	 2.81778274019783 
1868	-0.166234646246412 
1869	 48.0858482820704 
1870	 31.254358654745 
1871	 17.1673089132243 
1872	 28.234025888846 
1873	 19.2701822269366 
1874	-30.7911630932878 
1875	-41.3172148030032 
1876	-42.7596231337232 
1877	-21.929736848909 
1878	 13.9368549730563 
1879	 30.9578864289332 
1880	 49.1753970914737 
1881	 46.786761987514 
1882	 43.2322270593138 
1883	 16.941953212124 
1884	 7.56307418700498 
1885	 10.2735055966181 
1886	 27.3009046809265 
1887	-20.7198623618083 
1888	-23.0715830847252 
1889	 7.44340629848151 
1890	-24.0081263057728 
1891	-22.585999593357 
1892	 1.92320610967918 
1893	-18.8373697641516 
1894	-33.4712847196528 
1895	-42.196866747287 
1896	-40.7097418509656 
1897	-62.3406728038613 
1898	-39.0959678464551 
1899	 1.06441095105599 
1900	 32.2864592823965 
1901	 57.4851732327459 
1902	 25.8649272690858 
1903	 26.1381393580041 
1904	 41.0454628490167 
1905	 43.5236306274302 
1906	 58.1232678520067 
1907	 115.690147172047 
1908	 88.1080182144381 
1909	 14.7012093049143 
1910	 4.98664317565725 
1911	-39.5261865817627 
1912	-80.8425963520473 
1913	-28.502053017968 
1914	 4.09897878279464 
1915	-4.00208408596842 
1916	 26.1983878925189 
1917	 41.7013684607288 
1918	 42.8580949746223 
1919	 14.8795050871748 
1920	-1.44852825760491 
1921	 3.06229312185999 
1922	-10.2020744526479 
1923	-57.5879664911113 
1924	-55.2559573710919 
1925	-82.6245296257899 
1926	-109.242612301502 
1927	-101.256081563803 
1928	-49.5945027239691 
1929	-25.0422627287556 
1930	 11.0548413762615 
1931	 36.3970758812688 
1932	 44.3046799303031 
1933	 65.3673321704923 
1934	 90.4382716973758 
1935	 94.8603353261286 
1936	 70.9935164010448 
1937	 63.9144634025413 
1938	 66.6712540133369 
1939	 69.6030091660579 
1940	 78.2912645941981 
1941	 111.661654117112 
1942	 128.553395562178 
1943	 134.728370294712 
1944	 166.460129024948 
1945	 187.377171833597 
1946	 199.998520392467 
1947	 205.85425424872 
1948	 173.552410522444 
1949	 137.762957726114 
1950	 106.165538106603 
1951	 80.9049838067457 
1952	 42.1569424420033 
1953	 43.8609682309864 
1954	 85.3699850293042 
1955	 104.179671529973 
1956	 109.051921179577 
1957	 89.9998368533124 
1958	 34.0297171288214 
1959	 25.0953563127374 
1960	 54.535191667932 
1961	 81.735638727864 
1962	 102.202296632962 
1963	 120.778320995489 
1964	 134.507987791317 
1965	 140.942338310771 
1966	 153.643890607237 
1967	 163.985995616808 
1968	 179.205248672991 
1969	 191.449632472026 
1970	 216.203485044915 
1971	 241.840316173687 
1972	 268.750369526808 
1973	 284.871332270136 
1974	 283.522640126263 
1975	 293.768504021868 
1976	 308.152667421051 
1977	 311.25815790074 
1978	 321.92655539012 
1979	 337.28659604964 
1980	 357.608081414989 
1981	 384.959967955291 
1982	 382.988938334579 
1983	 401.932644474936 
1984	 392.261872056215 
1985	 362.645860522804 
1986	 350.315167996042 
1987	 333.482909409143 
1988	 326.864586439892 
1989	 328.181278183249 
1990	 348.709570186017 
1991	 353.473371199138 
1992	 366.59244757265 
1993	 369.158187271514 
1994	 348.473858133275 
1995	 315.0196548492 
1996	 287.729285495715 
1997	 246.850457710914 
1998	 171.527816679662 
1999	 118.990456197197 
2000	 71.0997563557694 
2001	 27.8956075646596 
2002	-18.4300789859479 
2003	-23.0281721609548 
2004	-61.0905544837939 
2005	-96.7291479903351 
2006	-82.1564365884296 
2007	-61.6125929122476 
2008	-22.0777744604771 
2009	 53.6780604118872 
2010	 91.6616478666131 
2011	 101.263187184646 
2012	 113.319110646958 
2013	 114.999275241107 
2014	 120.850093436394 
2015	 106.406944579496 
2016	 133.675765607196 
2017	 173.866283934673 
2018	 199.381836149653 
2019	 249.275221193944 
2020	 256.212806570142 
2021	 268.063652217836 
2022	 295.336482879303 
2023	 325.369228086619 
2024	 365.329049994903 
2025	 407.977436762749 
2026	 477.418987240372 
2027	 506.846027437414 
2028	 510.826521839054 
2029	 523.69587675878 
2030	 539.221586895609 
2031	 556.97039266321 
2032	 583.246491394559 
2033	 606.748557355095 
2034	 654.455770257781 
2035	 680.145200168012 
2036	 710.341620606938 
2037	 767.485246577058 
2038	 789.623140462114 
2039	 794.873072156409 
2040	 787.214723957422 
2041	 756.84452403632 
2042	 744.53468285973 
2043	 733.569395849256 
2044	 697.005642985823 
2045	 677.179854746039 
2046	 641.945890776294 
2047	 619.341576183914 
2048	 577.715135377799 
2049	 519.114933153627 
2050	 511.547494811687 
2051	 493.584183168551 
2052	 467.045580106074 
2053	 454.407691695606 
2054	 458.182010868591 
2055	 460.682592808475 
2056	 450.942964628584 
2057	 476.531430468449 
2058	 527.610473468619 
2059	 534.448451431026 
2060	 559.989564659877 
2061	 547.71624305287 
2062	 532.3435536254 
2063	 534.65781727286 
2064	 524.533011849352 
2065	 501.064481530955 
2066	 519.194432286314 
2067	 552.333061065513 
2068	 581.87767288768 
2069	 658.161632837011 
2070	 670.243278315698 
2071	 639.227147661274 
2072	 617.514543645561 
2073	 585.835384244997 
2074	 597.184171660309 
2075	 690.854799759241 
2076	 778.119704954152 
2077	 827.500434257736 
2078	 894.326745895333 
2079	 904.286205581652 
2080	 817.986063312126 
2081	 817.299981650652 
2082	 830.261507395444 
2083	 844.473413940188 
2084	 906.353510500306 
2085	 933.025355688151 
2086	 944.146247603507 
2087	 957.320140788722 
2088	 920.270173694925 
2089	 917.579509723903 
2090	 903.189862543672 
2091	 835.225416230148 
2092	 826.157303365675 
2093	 847.963974640215 
2094	 870.405466522941 
2095	 941.323581840915 
2096	 958.020007739333 
2097	 929.707797938217 
2098	 937.66761924202 
2099	 928.923213089949 
2100	 944.274491427284 
2101	 988.509097658886 
2102	 1067.54181401455 
2103	 1082.29350884792 
2104	 1107.23956623336 
2105	 1108.95927703996 
2106	 1090.80830376341 
2107	 1082.87072704876 
2108	 1059.24508256093 
2109	 1047.53263090403 
2110	 1051.24038008305 
2111	 1051.33487810821 
2112	 1048.78924885604 
2113	 1063.59729743109 
2114	 1096.38559884589 
2115	 1109.27357638024 
2116	 1130.48733767431 
2117	 1146.20912564992 
2118	 1139.80727305128 
2119	 1139.72544687299 
2120	 1190.8203731634 
2121	 1233.76852675193 
2122	 1252.10445493992 
2123	 1282.04049724257 
2124	 1252.32493284159 
2125	 1209.80445029747 
2126	 1155.35921147875 
2127	 1092.96846876804 
2128	 1070.39401316418 
2129	 1049.20229889158 
2130	 1057.44291176607 
2131	 1134.21019899098 
2132	 1161.02568665144 
2133	 1194.99702437026 
2134	 1207.11798120801 
2135	 1194.12166105303 
2136	 1158.07466252109 
2137	 1160.76980508362 
2138	 1150.75422477254 
2139	 1167.41028804451 
2140	 1220.42297189343 
2141	 1227.30102351538 
2142	 1222.59179671105 
2143	 1217.01433007374 
2144	 1183.05876464919 
2145	 1146.29816915183 
2146	 1089.55260294399 
2147	 1064.91723730513 
2148	 1040.83715379276 
2149	 1023.36290534297 
2150	 1039.45842112414 
2151	 1030.0781521783 
2152	 994.060741119297 
2153	 979.264501480233 
2154	 1001.01452467677 
2155	 1043.71065037852 
2156	 1082.65556912274 
2157	 1108.74274144857 
2158	 1121.55567603306 
2159	 1116.51229358666 
2160	 1136.37704535022 
2161	 1166.59917534141 
2162	 1136.77954167147 
2163	 1109.73130823179 
2164	 1095.20637074869 
2165	 1062.80329193991 
2166	 1049.82733149237 
2167	 1060.22181741826 
2168	 1062.39469750812 
2169	 1068.78317491449 
2170	 1068.92406165857 
2171	 1071.8879047471 
2172	 1076.13804301444 
2173	 1057.74816058443 
2174	 1041.43526818451 
2175	 1031.6079180073 
2176	 1061.03695303062 
2177	 1108.09028405469 
2178	 1146.32813871019 
2179	 1173.16505322375 
2180	 1158.44222342087 
2181	 1103.61965341821 
2182	 1003.93920997989 
2183	 956.872329375442 
2184	 899.819231484392 
2185	 899.593240143656 
2186	 973.771900607583 
2187	 1007.04032718443 
2188	 1048.79228920265 
2189	 1064.27610393273 
2190	 1055.22781525564 
2191	 1053.52414922732 
2192	 1031.78398959284 
2193	 1058.97715144531 
2194	 1058.05990970794 
2195	 1050.3368098571 
2196	 1070.46113523627 
2197	 1037.01018106881 
2198	 987.911470554303 
2199	 990.678834886838 
2200	 971.115659359875 
2201	 923.616936885303 
2202	 959.365142918414 
2203	 968.593483289837 
2204	 984.061114328655 
2205	 1049.5175490313 
2206	 1055.55647350785 
2207	 1008.44116393537 
2208	 999.75981152467 
2209	 972.061836341706 
2210	 968.119957747753 
2211	 1008.10354648415 
2212	 1010.29090996743 
2213	 998.72842621041 
2214	 982.790602817802 
2215	 982.615675104115 
2216	 997.13710697092 
2217	 1011.06840696385 
2218	 1004.34401467488 
2219	 978.908730172629 
2220	 969.63630189705 
2221	 949.331616129546 
2222	 972.984832739464 
2223	 1008.3009763801 
2224	 993.831938646621 
2225	 1022.65681616177 
2226	 1045.72921298178 
2227	 1039.21874940429 
2228	 1006.12367102279 
2229	 990.765989375489 
2230	 962.535917380805 
2231	 935.469859855531 
2232	 919.124976430728 
2233	 901.661318271041 
2234	 877.474202262892 
2235	 854.458654860087 
2236	 827.116097481081 
2237	 808.098089477086 
2238	 793.472838049537 
2239	 772.96239298046 
2240	 756.613408913173 
2241	 748.53665875361 
2242	 751.697031156446 
2243	 790.726293717796 
2244	 827.659367663822 
2245	 856.708026184215 
2246	 841.416187335789 
2247	 769.286864470944 
2248	 751.974614187191 
2249	 743.476151946223 
2250	 733.060229655695 
2251	 777.558494940145 
2252	 781.16607478376 
2253	 760.012579790181 
2254	 742.150474640112 
2255	 729.134297202886 
2256	 700.552354114532 
2257	 643.960990854244 
2258	 614.085615184675 
2259	 585.138091310658 
2260	 574.327719007394 
2261	 582.994212496156 
2262	 585.871288933931 
2263	 610.154638799197 
2264	 624.277567651174 
2265	 635.192640924661 
2266	 637.147008763507 
2267	 623.365847440463 
2268	 573.240403474094 
2269	 484.771508950038 
2270	 434.861561563391 
2271	 420.215733962149 
2272	 416.66711339526 
2273	 499.504429554585 
2274	 571.570499413172 
2275	 602.757342979016 
2276	 642.09799325337 
2277	 626.328346270839 
2278	 593.595053042177 
2279	 571.340347128978 
2280	 571.157438201274 
2281	 597.949714479945 
2282	 599.477325384078 
2283	 614.656222506818 
2284	 609.749689982715 
2285	 595.026546568041 
2286	 561.935862113875 
2287	 542.334757457214 
2288	 504.793899491443 
2289	 493.803296094226 
2290	 497.400013074349 
2291	 481.123208909353 
2292	 478.278787673141 
2293	 478.311040745266 
2294	 469.702886725622 
2295	 463.835358674326 
2296	 479.81065867465 
2297	 458.446505104805 
2298	 397.848919147766 
2299	 349.661831967567 
2300	 287.170876668456 
2301	 233.753327910763 
2302	 213.97848816098 
2303	 265.855966024744 
2304	 288.901801292043 
2305	 319.899884723403 
2306	 377.369227265625 
2307	 348.003262751862 
2308	 327.129486221125 
2309	 352.490930839359 
2310	 309.831467924684 
2311	 292.633553715649 
2312	 334.605230210835 
2313	 335.264028762302 
2314	 337.609053384996 
2315	 332.735679412608 
2316	 275.691609187105 
2317	 262.206030437217 
2318	 289.435608353823 
2319	 315.249293119536 
2320	 348.341616148135 
2321	 322.226182234712 
2322	 291.721434949967 
2323	 308.847280377299 
2324	 312.556183004399 
2325	 302.4897057509 
2326	 299.002598049892 
2327	 287.512581391437 
2328	 255.5680214148 
2329	 204.22138546441 
2330	 200.633737207776 
2331	 207.132370329453 
2332	 200.814477656256 
2333	 243.975489522126 
2334	 246.119364204756 
2335	 195.885773717262 
2336	 177.107630973918 
2337	 150.157934193346 
2338	 133.537918185767 
2339	 132.596549007796 
2340	 124.584059177887 
2341	 138.4103242434 
2342	 133.142486913383 
2343	 95.5892569650525 
2344	 96.0926933652682 
2345	 90.8249659489585 
2346	 131.941371393661 
2347	 198.13190058497 
2348	 223.545933058713 
2349	 227.832050266365 
2350	 188.245939885716 
2351	 138.510521595671 
2352	 149.483835126641 
2353	 156.227299898673 
2354	 136.088285599728 
2355	 118.081552585195 
2356	 83.7154387748036 
2357	 98.8398632616337 
2358	 145.631674953314 
2359	 217.114195001096 
2360	 301.931114402043 
2361	 312.558146727265 
2362	 306.245746800742 
2363	 271.692584667002 
2364	 224.442913963469 
2365	 230.866388116186 
2366	 232.135047791275 
2367	 223.499654135869 
2368	 189.651593185499 
2369	 96.3688562132645 
2370	-5.17280791398419 
2371	-70.4696593004884 
2372	-100.144246058681 
2373	-86.8844963005348 
2374	-15.8848087782756 
2375	 50.2569786936488 
2376	 68.4362589253503 
2377	 89.8907627841941 
2378	 99.1263560410991 
2379	 72.4071917929789 
2380	 69.6834931951759 
2381	 52.3365137759605 
2382	-0.117135269570378 
2383	-4.01510318198564 
2384	 15.1377843417518 
2385	 45.5633179079538 
2386	 95.5516764372712 
2387	 114.270995872944 
2388	 87.7243870155834 
2389	 71.7333905645004 
2390	 75.1599072098409 
2391	 44.4527897275206 
2392	 11.836627881989 
2393	-5.83939779691636 
2394	-43.4111066174642 
2395	-46.2855472014486 
2396	 24.9275380788348 
2397	 56.1726378876543 
2398	 53.0425508404445 
2399	 79.5465063094967 
2400	 76.0952993719649 
2401	 84.7073155768013 
2402	 123.73144691705 
2403	 115.956276725584 
2404	 63.8332088653322 
2405	 13.9117488182556 
2406	-31.769094613799 
2407	-87.8251948245335 
2408	-81.1672111987955 
2409	-25.9105522442583 
2410	-12.0965670764399 
2411	 41.550980448257 
2412	 55.2944341414181 
2413	-15.3121851718674 
2414	-3.9706502771237 
2415	-7.81423851338314 
2416	-23.838595742962 
2417	 9.97979411674339 
2418	-10.5717719970746 
2419	 13.0639570087546 
2420	 88.453650832709 
2421	 93.083678040023 
2422	 105.523517943188 
2423	 137.03094043057 
2424	 105.191425145481 
2425	 113.987586962557 
2426	 164.03991752111 
2427	 143.153243188297 
2428	 120.935794030405 
2429	 118.67115629968 
2430	 111.715549374237 
2431	 119.744142515892 
2432	 107.389173180677 
2433	 65.1991669558003 
2434	 13.7493614220815 
2435	-62.7358665458383 
2436	-112.835872235982 
2437	-98.2716614127189 
2438	-56.8761305166298 
2439	-6.2258587854543 
2440	 8.73504771819697 
2441	 24.2683115156275 
2442	 31.1573335548109 
2443	 27.4294789308206 
2444	 89.2882076252543 
2445	 136.276636624672 
2446	 142.599169200017 
2447	 158.518310279429 
2448	 173.057448362015 
2449	 135.998914496243 
2450	 110.35043492615 
2451	 118.79709649087 
2452	 81.4819194417615 
2453	 72.7037057757461 
2454	 49.7018109831329 
2455	-1.64816946782403 
2456	-18.7256373954322 
2457	-43.8519249456023 
2458	-27.7336346909113 
2459	-5.6797476886411 
2460	-14.1356953457654 
2461	 11.7449387504044 
2462	 17.8370597562267 
2463	 0.463405192730654 
2464	 10.6371287417858 
2465	 25.7245441331074 
2466	 29.7156428956957 
2467	 9.59360424215768 
2468	 1.56498976794892 
2469	-13.5392956482712 
2470	-48.6855103051725 
2471	-16.5828554498831 
2472	 28.7451428105424 
2473	 47.4126734338195 
2474	 73.268189133296 
2475	 64.427327688295 
2476	 48.390129288199 
2477	 45.1093830671871 
2478	 49.7300973387188 
2479	 64.0693118813322 
2480	 55.744872634975 
2481	 19.3270503466266 
2482	 2.19810428395967 
2483	-36.9048133111777 
2484	-35.9739581345998 
2485	 8.95887803043199 
2486	 24.4142999216032 
2487	 71.8294884629833 
2488	 91.5161408744239 
2489	 52.8642702097137 
2490	 65.4732222250583 
2491	 114.456776502287 
2492	 118.053115563925 
2493	 132.886596617976 
2494	 122.230511581743 
2495	 47.6987995585044 
2496	 15.5068209630624 
2497	-0.625811472057997 
2498	-12.1460739652068 
2499	-6.45109286717247 
2500	-13.8972111926311 
