
Text conversion of header file \h820\optphotolab\Drones\DJI__Mavic_3M\viikki-field_calibration__20240521\panel_reflec\reflec_panel-50__00015.asd
 -------------------------------------------------------------
                                                                                                                                                            
The instrument number was  18875/1
New ASD spectrum file: Program version = 6.04 file version = 7.00
Spectrum saved: 05/21/2024 at 11:14:40
VNIR integration time : 34
VNIR channel 1 wavelength = 350 wavelength step = 1
There was one sample per data value
xmin = 350 xmax= 2500
ymin= 0 ymax= 1.25
The instrument digitizes spectral values to 16 bits
SWIR1 gain was 16 offset was 2051
SWIR2 gain was 16 offset was 2069
Join between VNIR and SWIR1 was 1000 nm
Join between SWIR1 and SWIR2 was 1800 nm
VNIR dark signal subtracted
100 dark measurements taken Tue May 21 11:13:53 2024
DCC value was 0
Data is compared to a white reference:
10 white reference measurements taken Tue May 21 11:13:55 2024
There was no foreoptic attached
Spectrum file is raw data with embedded reference
GPS-Latitude is S0
GPS-Longitude is E0
GPS-Altitude is 0
GPS-UTC is 00:00:00

Smart Detector
Serial#  0
Signal (A)  0.000E00
Dark (A)  0.000E00
Ref (A)  0.000E00
Status  0 - Uninitialized
Gain  E-4
Averaging  0
Temp (C)  0.0
Humid (%)  0.0

Wavelength	reflec_panels-00015.asd
350	 0.518481226961237 
351	 0.517691609754483 
352	 0.517062995443863 
353	 0.516838778725304 
354	 0.516697113853745 
355	 0.516265478196727 
356	 0.516028580463952 
357	 0.516049209699881 
358	 0.516108505177097 
359	 0.515804506557418 
360	 0.515946753036863 
361	 0.51617498899697 
362	 0.51607966883852 
363	 0.515569142907195 
364	 0.515520259321064 
365	 0.515476295611077 
366	 0.514647248959009 
367	 0.514314794459817 
368	 0.514190927332125 
369	 0.514061727947435 
370	 0.514011261434757 
371	 0.513831017782563 
372	 0.513588699673572 
373	 0.513387758520257 
374	 0.513138119703916 
375	 0.512897345207929 
376	 0.512609299253572 
377	 0.512167701118986 
378	 0.512209343050813 
379	 0.512158965437029 
380	 0.511710585569431 
381	 0.511697497718635 
382	 0.511410427980775 
383	 0.510893882361766 
384	 0.510541828834119 
385	 0.510804268761218 
386	 0.510757164601939 
387	 0.510195212120377 
388	 0.509958346294118 
389	 0.510070774161459 
390	 0.509937878831587 
391	 0.509244196402762 
392	 0.509065664078576 
393	 0.509215121058367 
394	 0.509273016676211 
395	 0.5087888236589 
396	 0.508563504524723 
397	 0.508308108508748 
398	 0.507908910113012 
399	 0.507788571809919 
400	 0.50765496017028 
401	 0.50753994970257 
402	 0.507494322295678 
403	 0.507167848409711 
404	 0.507037758329942 
405	 0.507079669244684 
406	 0.506757293951289 
407	 0.506690421152656 
408	 0.506631309753468 
409	 0.506335749654432 
410	 0.506135469039236 
411	 0.505968810401063 
412	 0.505813186134023 
413	 0.505658673276332 
414	 0.505402570943352 
415	 0.505271003858928 
416	 0.505312311999695 
417	 0.505215260690347 
418	 0.504984250746977 
419	 0.504845441867882 
420	 0.504953478726833 
421	 0.504644782243816 
422	 0.504434476920567 
423	 0.504425619700381 
424	 0.504248326779548 
425	 0.504123982405818 
426	 0.504020526544145 
427	 0.503868980279181 
428	 0.503619809792962 
429	 0.503555024841112 
430	 0.503654509067533 
431	 0.503688416764942 
432	 0.503376466752221 
433	 0.503021439453012 
434	 0.502843394843229 
435	 0.502825691099968 
436	 0.502717785529381 
437	 0.502548826019864 
438	 0.502426447009904 
439	 0.502363286344214 
440	 0.502222615443138 
441	 0.501998179364023 
442	 0.501822050379185 
443	 0.501852908460308 
444	 0.50180849226759 
445	 0.501521840622013 
446	 0.501454036028489 
447	 0.501372330781374 
448	 0.501227403589416 
449	 0.501083942030595 
450	 0.500950025855274 
451	 0.500833087165055 
452	 0.500747444021519 
453	 0.500741092444522 
454	 0.500620344306423 
455	 0.50046753089851 
456	 0.500430599907539 
457	 0.500318215628184 
458	 0.500274524590291 
459	 0.500297552127353 
460	 0.500187092161577 
461	 0.499998538943334 
462	 0.499914892762728 
463	 0.500020518098345 
464	 0.499926231007472 
465	 0.499796080123495 
466	 0.499718486974396 
467	 0.499709136480156 
468	 0.499639235895244 
469	 0.499557571343572 
470	 0.499516719475877 
471	 0.499515297068927 
472	 0.499458012881673 
473	 0.499353580979816 
474	 0.499255581040326 
475	 0.499153383106574 
476	 0.49909537782041 
477	 0.499078267839185 
478	 0.49902432503755 
479	 0.498963622403703 
480	 0.498911710341818 
481	 0.498868668967815 
482	 0.498777697161318 
483	 0.498714277489353 
484	 0.498708590079446 
485	 0.498743142681292 
486	 0.498762227648872 
487	 0.498691127166399 
488	 0.498527972502834 
489	 0.498463267429962 
490	 0.498358312859876 
491	 0.498295596692086 
492	 0.49840778932307 
493	 0.498365981559223 
494	 0.498337842403322 
495	 0.49837127058238 
496	 0.498243773469708 
497	 0.49812823031411 
498	 0.498006483987117 
499	 0.497841466551854 
500	 0.497792238198174 
501	 0.497767782709464 
502	 0.497739061537707 
503	 0.497746057619959 
504	 0.497681898789374 
505	 0.497586147605747 
506	 0.49752246951006 
507	 0.497536965776908 
508	 0.49754631654146 
509	 0.497509275004385 
510	 0.497419362624235 
511	 0.497342806165971 
512	 0.497294792963919 
513	 0.497252319829259 
514	 0.497135276220417 
515	 0.497004388999967 
516	 0.496913540291466 
517	 0.49689852256713 
518	 0.496890328067172 
519	 0.49687791379415 
520	 0.496850404359087 
521	 0.496794025791327 
522	 0.496634382073751 
523	 0.496477573848055 
524	 0.49642242411463 
525	 0.496441729861553 
526	 0.496440535287007 
527	 0.496371464507967 
528	 0.496239170943373 
529	 0.496223515402494 
530	 0.496198329311657 
531	 0.496103462638849 
532	 0.496094214345367 
533	 0.496081618913385 
534	 0.496076364894111 
535	 0.496094514569593 
536	 0.495960508760915 
537	 0.495820196814244 
538	 0.495727273037906 
539	 0.495597097674586 
540	 0.495577659392715 
541	 0.495580483016256 
542	 0.495509221454347 
543	 0.495494751014513 
544	 0.495429888705912 
545	 0.495344403677473 
546	 0.495358540812485 
547	 0.495352941903852 
548	 0.495275322719352 
549	 0.495121505642435 
550	 0.494944860669854 
551	 0.49492594965351 
552	 0.494995439431346 
553	 0.494982754645431 
554	 0.494907336835058 
555	 0.494831265630287 
556	 0.49476753849785 
557	 0.494653284380697 
558	 0.494594209202625 
559	 0.49457949933664 
560	 0.494558508956563 
561	 0.49446959641815 
562	 0.494431941171685 
563	 0.49441891501033 
564	 0.494296075036145 
565	 0.494314546155452 
566	 0.494364414711841 
567	 0.494335705093348 
568	 0.4942945743303 
569	 0.494182523357836 
570	 0.494094140845193 
571	 0.494160308191546 
572	 0.494145902602483 
573	 0.494091132736845 
574	 0.494013561475259 
575	 0.493847746695236 
576	 0.493764298427273 
577	 0.493752239029516 
578	 0.493753431124659 
579	 0.493783315494044 
580	 0.493733466834626 
581	 0.493639822641963 
582	 0.493651524344752 
583	 0.493640462170446 
584	 0.493622764929678 
585	 0.493612851979054 
586	 0.493548745215037 
587	 0.493529136250624 
588	 0.493542016896551 
589	 0.493522610863347 
590	 0.493505675131309 
591	 0.493481052165101 
592	 0.493429083190741 
593	 0.493317253247392 
594	 0.493260645918889 
595	 0.493258322999109 
596	 0.493263252599134 
597	 0.49320107885132 
598	 0.493129823998664 
599	 0.493084810048634 
600	 0.493073509453838 
601	 0.49304126850332 
602	 0.493003615795363 
603	 0.492971681190779 
604	 0.492906344979023 
605	 0.492837841756786 
606	 0.49279989929492 
607	 0.492808526376494 
608	 0.492725155666662 
609	 0.492675800173881 
610	 0.492693404292522 
611	 0.492636507604807 
612	 0.492667458152843 
613	 0.492694300779224 
614	 0.492614014833747 
615	 0.492588567244363 
616	 0.492564098883384 
617	 0.492533806801033 
618	 0.492527888277001 
619	 0.49247610614248 
620	 0.492393145142 
621	 0.492310004100503 
622	 0.492257930480698 
623	 0.492279734835451 
624	 0.492317389938263 
625	 0.492285408456759 
626	 0.492281503958854 
627	 0.492203158271552 
628	 0.492070106926423 
629	 0.492071485854642 
630	 0.492074634341802 
631	 0.4920788525267 
632	 0.492086351658817 
633	 0.49198912004587 
634	 0.49192503890224 
635	 0.491918044301056 
636	 0.491913068430199 
637	 0.491909011222939 
638	 0.491888817127723 
639	 0.491844597568416 
640	 0.491786923709587 
641	 0.491671879242011 
642	 0.49164762252399 
643	 0.491825649949198 
644	 0.491781234128878 
645	 0.49165266612209 
646	 0.491575140435891 
647	 0.491643649837829 
648	 0.491687956691946 
649	 0.491710664161689 
650	 0.491728374474419 
651	 0.491688599964685 
652	 0.491633460178819 
653	 0.491584773997736 
654	 0.491545298685902 
655	 0.491453720725848 
656	 0.491381051541935 
657	 0.491374864267915 
658	 0.491423399158106 
659	 0.491411606635222 
660	 0.491343839489372 
661	 0.491242681819645 
662	 0.491069728288805 
663	 0.490998050480723 
664	 0.491025605562044 
665	 0.491031168161897 
666	 0.491046633719446 
667	 0.491014410655946 
668	 0.490922427319432 
669	 0.490852656737193 
670	 0.490867221750346 
671	 0.490881458738427 
672	 0.490800971238041 
673	 0.490765324074334 
674	 0.490706820601161 
675	 0.490627323005287 
676	 0.490592282660297 
677	 0.490520001286877 
678	 0.490457990457418 
679	 0.490450872292785 
680	 0.490496135617256 
681	 0.490474103891441 
682	 0.49039596915792 
683	 0.490334499578696 
684	 0.490346525697859 
685	 0.490342250774898 
686	 0.490245323290637 
687	 0.490004481193011 
688	 0.490058178064006 
689	 0.490272766437812 
690	 0.490353354240258 
691	 0.490212314941946 
692	 0.49009761688438 
693	 0.490027011143471 
694	 0.489934215027229 
695	 0.489972273527094 
696	 0.489957858772819 
697	 0.489834003142011 
698	 0.489734435472205 
699	 0.489653500704856 
700	 0.489629739766344 
701	 0.489659327691525 
702	 0.489566000559955 
703	 0.489565450399747 
704	 0.489606061847824 
705	 0.489502753437373 
706	 0.489320182416119 
707	 0.4891871886066 
708	 0.489141569277835 
709	 0.489084487193891 
710	 0.489008553317445 
711	 0.489022700925742 
712	 0.489157434825461 
713	 0.4890761557541 
714	 0.488939812802693 
715	 0.488869251274137 
716	 0.488942325368098 
717	 0.489090264686953 
718	 0.489426805811492 
719	 0.489824206605481 
720	 0.489668672420183 
721	 0.489469824592922 
722	 0.489288787601536 
723	 0.489086431520429 
724	 0.488972441495366 
725	 0.48903019229045 
726	 0.48915205578767 
727	 0.489123436978648 
728	 0.48911842139308 
729	 0.489153292916265 
730	 0.489136185444306 
731	 0.48885103641483 
732	 0.488709636508033 
733	 0.488621596201231 
734	 0.488453478950407 
735	 0.488348488268816 
736	 0.488325336358561 
737	 0.488320023982004 
738	 0.488227655171064 
739	 0.488056225052837 
740	 0.487866291779062 
741	 0.487753220788468 
742	 0.487841185071801 
743	 0.487816027619717 
744	 0.487706234002766 
745	 0.48762299600179 
746	 0.487654310637174 
747	 0.487676467476923 
748	 0.487630497165562 
749	 0.487520251632322 
750	 0.487521599051355 
751	 0.487449932502319 
752	 0.487325277511855 
753	 0.487422576698138 
754	 0.48739846385299 
755	 0.487343674175852 
756	 0.487341740339477 
757	 0.487212115759522 
758	 0.487106526759003 
759	 0.487020368984115 
760	 0.486910258441252 
761	 0.48724247349124 
762	 0.487711877950817 
763	 0.487783760255902 
764	 0.487699826915539 
765	 0.487720702694221 
766	 0.487611988270792 
767	 0.487344848534231 
768	 0.487112075245309 
769	 0.487026716487902 
770	 0.486999075829123 
771	 0.486937414565367 
772	 0.486917154845667 
773	 0.486923146869116 
774	 0.48690673525579 
775	 0.486813978820805 
776	 0.486754541272205 
777	 0.486663360934315 
778	 0.486531307316881 
779	 0.48645456709066 
780	 0.486404753327678 
781	 0.486398319004028 
782	 0.486428551076381 
783	 0.486397518240222 
784	 0.486385786854774 
785	 0.486386028671211 
786	 0.486349618999962 
787	 0.486237745135291 
788	 0.486176850103995 
789	 0.486204594736674 
790	 0.486255282049396 
791	 0.486251381729556 
792	 0.486204748574835 
793	 0.486143942368529 
794	 0.486092129221767 
795	 0.486018725254904 
796	 0.485938729409801 
797	 0.485882454474829 
798	 0.485880485115509 
799	 0.485900787783099 
800	 0.485910154011152 
801	 0.485900598961686 
802	 0.486058247575209 
803	 0.486078285041708 
804	 0.485976554426547 
805	 0.48614537527531 
806	 0.486011936293942 
807	 0.485858480947555 
808	 0.4859055628996 
809	 0.485892879430809 
810	 0.48586546520509 
811	 0.485875759107396 
812	 0.485958515959684 
813	 0.486031452659089 
814	 0.486195029834206 
815	 0.48639455707046 
816	 0.48648134818069 
817	 0.486567315888071 
818	 0.486644127344736 
819	 0.486599979874474 
820	 0.486268598665626 
821	 0.486194801919588 
822	 0.486192322760279 
823	 0.486108159636403 
824	 0.486146671519105 
825	 0.48607927110058 
826	 0.48586446997102 
827	 0.485608587081435 
828	 0.48570853244938 
829	 0.485842082110698 
830	 0.485856274799766 
831	 0.485738831937331 
832	 0.485647348830471 
833	 0.485601518220916 
834	 0.485587178743913 
835	 0.485565526698355 
836	 0.485470012956404 
837	 0.485344224428845 
838	 0.485261934903093 
839	 0.485312335823032 
840	 0.48532008913327 
841	 0.485187496835141 
842	 0.484944684054134 
843	 0.484895249556618 
844	 0.484882786840421 
845	 0.484868252336504 
846	 0.484849247444341 
847	 0.484804919974935 
848	 0.484593683842404 
849	 0.484382850036401 
850	 0.484476275102004 
851	 0.484405497718203 
852	 0.484490290106908 
853	 0.484686104590697 
854	 0.484491785321478 
855	 0.484422955671346 
856	 0.484426573943261 
857	 0.484411607839175 
858	 0.484410124474587 
859	 0.484349932061569 
860	 0.484271104477755 
861	 0.484221825389835 
862	 0.484187945608957 
863	 0.484164122792371 
864	 0.484154867252458 
865	 0.484155606903192 
866	 0.484104686994762 
867	 0.484038478626483 
868	 0.484002721853135 
869	 0.484018560329199 
870	 0.483952985772339 
871	 0.483842123410535 
872	 0.48378792634669 
873	 0.483902006203438 
874	 0.483877544266632 
875	 0.483777997029775 
876	 0.483724194701697 
877	 0.48381914522834 
878	 0.483817499159648 
879	 0.483729235580857 
880	 0.483642082430402 
881	 0.483674876589714 
882	 0.483686846588799 
883	 0.483697762534971 
884	 0.483740923733349 
885	 0.483745849257019 
886	 0.483687935012868 
887	 0.483652096380336 
888	 0.483699077809464 
889	 0.48355937951045 
890	 0.483615173304623 
891	 0.483693737638226 
892	 0.483428326462773 
893	 0.483447509165985 
894	 0.483626513719632 
895	 0.483809315536929 
896	 0.483900882680089 
897	 0.484269018453384 
898	 0.484420752778043 
899	 0.484366007033662 
900	 0.484781944137583 
901	 0.484621108506532 
902	 0.484308528529154 
903	 0.4841846549852 
904	 0.484069573069668 
905	 0.483858818730122 
906	 0.483723581121077 
907	 0.48382261292775 
908	 0.484176018021922 
909	 0.484429119829317 
910	 0.484559444987934 
911	 0.484583489613967 
912	 0.484310003044544 
913	 0.483950795157007 
914	 0.483841730465405 
915	 0.484148429775262 
916	 0.484419844491459 
917	 0.484363153185821 
918	 0.484029907302361 
919	 0.48372560120131 
920	 0.484033914704998 
921	 0.48405388731788 
922	 0.483682808659146 
923	 0.483318524647433 
924	 0.483427526505452 
925	 0.483606399080048 
926	 0.48365700436678 
927	 0.483629058899424 
928	 0.48400734260871 
929	 0.483901484817506 
930	 0.483764521751716 
931	 0.485186841591869 
932	 0.485241426547908 
933	 0.484811412753023 
934	 0.484489555210769 
935	 0.483864035092038 
936	 0.484709122649397 
937	 0.485559152881028 
938	 0.485682732718324 
939	 0.485746916949623 
940	 0.485212435275153 
941	 0.485110888556131 
942	 0.485506196254865 
943	 0.485277554308093 
944	 0.48539371961634 
945	 0.485378109145087 
946	 0.485260079421762 
947	 0.486035252418857 
948	 0.485744542277921 
949	 0.485084538297103 
950	 0.484662841288108 
951	 0.484133289179183 
952	 0.484367946175221 
953	 0.484535558134658 
954	 0.484198745404904 
955	 0.484117428612252 
956	 0.483836404533818 
957	 0.483785214195195 
958	 0.484150084402375 
959	 0.484412853671709 
960	 0.483235567392983 
961	 0.482917613353873 
962	 0.484033649659017 
963	 0.482894335390505 
964	 0.482287173684936 
965	 0.482213453252928 
966	 0.482279019343112 
967	 0.482547881142528 
968	 0.482481872080592 
969	 0.482478581019023 
970	 0.48260487634732 
971	 0.481930646269759 
972	 0.481953215509422 
973	 0.481910051629993 
974	 0.48124321129649 
975	 0.480902518648526 
976	 0.481564182606968 
977	 0.482399244426434 
978	 0.482551516419799 
979	 0.482030477002777 
980	 0.482108686406027 
981	 0.481893888134286 
982	 0.481099517730541 
983	 0.481387379389778 
984	 0.480786964837973 
985	 0.480183135676765 
986	 0.480250572138013 
987	 0.480196190816054 
988	 0.481264114964212 
989	 0.481564950802249 
990	 0.480643231697735 
991	 0.481226934034454 
992	 0.480698023261685 
993	 0.480406731745781 
994	 0.480997906772843 
995	 0.480958052721532 
996	 0.48097950917753 
997	 0.481674955580956 
998	 0.482560195018193 
999	 0.481925476696214 
1000	 0.480676335747023 
1001	 0.481745471402373 
1002	 0.482181057903637 
1003	 0.484053006630613 
1004	 0.484486963635168 
1005	 0.484895790100402 
1006	 0.483753676451383 
1007	 0.482846200956029 
1008	 0.48222719671172 
1009	 0.480530840210922 
1010	 0.480909196085141 
1011	 0.482250732808547 
1012	 0.482728150702855 
1013	 0.483843401056386 
1014	 0.484344009352434 
1015	 0.484595310712441 
1016	 0.484315111458626 
1017	 0.483904942236635 
1018	 0.48288896598843 
1019	 0.482742006019568 
1020	 0.483776550235845 
1021	 0.483828994287994 
1022	 0.48466278391414 
1023	 0.48488022900481 
1024	 0.483702033757295 
1025	 0.482288021652875 
1026	 0.480642765571348 
1027	 0.480389570763683 
1028	 0.480386681810383 
1029	 0.479697296082283 
1030	 0.479664234488161 
1031	 0.480200120769881 
1032	 0.480890718822195 
1033	 0.482254445543139 
1034	 0.48391754171494 
1035	 0.484917492850851 
1036	 0.485049491183266 
1037	 0.484177010723799 
1038	 0.482721703405477 
1039	 0.481877747654928 
1040	 0.482014493612359 
1041	 0.481761361711245 
1042	 0.481964341818894 
1043	 0.483062737546306 
1044	 0.483605328472067 
1045	 0.482109169114212 
1046	 0.481305911494776 
1047	 0.480324711902031 
1048	 0.478769644853491 
1049	 0.478339289704857 
1050	 0.479141038389116 
1051	 0.479593602971736 
1052	 0.479849409336189 
1053	 0.481091058314937 
1054	 0.481772846028552 
1055	 0.481841723005445 
1056	 0.480869037661429 
1057	 0.480868146975655 
1058	 0.481204623176398 
1059	 0.480506015452145 
1060	 0.480231516872016 
1061	 0.481342356924081 
1062	 0.48169315141013 
1063	 0.482196880563833 
1064	 0.483640191118979 
1065	 0.484595702664201 
1066	 0.484736196398754 
1067	 0.483962430797089 
1068	 0.483282300120829 
1069	 0.481384076533388 
1070	 0.480836892550717 
1071	 0.480448899905573 
1072	 0.481306199627052 
1073	 0.482574581939663 
1074	 0.482458981679063 
1075	 0.481623285294669 
1076	 0.480703301094974 
1077	 0.480364011508377 
1078	 0.480096647078813 
1079	 0.479849320347823 
1080	 0.480502069921217 
1081	 0.480491957120499 
1082	 0.479566798521659 
1083	 0.479616074304375 
1084	 0.480246079509553 
1085	 0.480438699666736 
1086	 0.48067243770481 
1087	 0.481273734325248 
1088	 0.481449316698078 
1089	 0.481192748611403 
1090	 0.480654019636286 
1091	 0.48022383528976 
1092	 0.480480835448251 
1093	 0.480178929312683 
1094	 0.480032805926906 
1095	 0.480312224495424 
1096	 0.48049892550655 
1097	 0.480518350896608 
1098	 0.480479048681034 
1099	 0.4805084945126 
1100	 0.480722882723433 
1101	 0.480835078864776 
1102	 0.48056757136163 
1103	 0.481696419299256 
1104	 0.482835792559108 
1105	 0.483038803355762 
1106	 0.483340540851352 
1107	 0.482424115319406 
1108	 0.480913856720847 
1109	 0.480328932749081 
1110	 0.47958731328049 
1111	 0.479624612305533 
1112	 0.481220779169106 
1113	 0.481991581590162 
1114	 0.482338024940093 
1115	 0.483786490716351 
1116	 0.486550149445391 
1117	 0.488585608183402 
1118	 0.490294616095098 
1119	 0.491280513689002 
1120	 0.489478496472362 
1121	 0.486710184319599 
1122	 0.485762462955462 
1123	 0.485889712800989 
1124	 0.486129549174761 
1125	 0.488204442285468 
1126	 0.488226515384226 
1127	 0.487132556540807 
1128	 0.486408936941436 
1129	 0.484649866904372 
1130	 0.484229353005475 
1131	 0.484128163474722 
1132	 0.485565442167828 
1133	 0.485951594819757 
1134	 0.485478012781851 
1135	 0.484575900628013 
1136	 0.482199549061469 
1137	 0.482329409169411 
1138	 0.483626353669414 
1139	 0.483487712421773 
1140	 0.483174667082072 
1141	 0.483470650138527 
1142	 0.48331807472767 
1143	 0.483502293746745 
1144	 0.485223849528137 
1145	 0.486397187979528 
1146	 0.487354809330334 
1147	 0.48755973401678 
1148	 0.486584479033461 
1149	 0.485455567027559 
1150	 0.484128946132524 
1151	 0.480985480940459 
1152	 0.480687690842388 
1153	 0.482033620178284 
1154	 0.481891651373501 
1155	 0.482453937440987 
1156	 0.481835543749277 
1157	 0.479368685035178 
1158	 0.47887617730718 
1159	 0.479428796057432 
1160	 0.479214499298761 
1161	 0.479260377185428 
1162	 0.479294474567932 
1163	 0.478897919134477 
1164	 0.478312218809987 
1165	 0.47825617066149 
1166	 0.478730727269552 
1167	 0.478989804460598 
1168	 0.479420000731992 
1169	 0.479376655253945 
1170	 0.479285329778347 
1171	 0.479058710579074 
1172	 0.478130110588039 
1173	 0.47785238863239 
1174	 0.478046339418184 
1175	 0.477950815166096 
1176	 0.478032348659418 
1177	 0.477920982640108 
1178	 0.477413025265465 
1179	 0.477124016830846 
1180	 0.47702962767002 
1181	 0.477014221998623 
1182	 0.477071860294222 
1183	 0.477407775744355 
1184	 0.477566562012758 
1185	 0.477722669146369 
1186	 0.477794479098417 
1187	 0.477693825229061 
1188	 0.477845465738732 
1189	 0.478171885938808 
1190	 0.478254827392196 
1191	 0.478642364764956 
1192	 0.478550633954537 
1193	 0.478096458009797 
1194	 0.477501596524712 
1195	 0.476696007128265 
1196	 0.475228013529773 
1197	 0.47497279277199 
1198	 0.474984209920932 
1199	 0.475095030567419 
1200	 0.475989754757363 
1201	 0.476599898372071 
1202	 0.477364526895677 
1203	 0.477495979252567 
1204	 0.477473656214189 
1205	 0.477479575247974 
1206	 0.476629722530596 
1207	 0.476463724208459 
1208	 0.477096047558824 
1209	 0.477234717180101 
1210	 0.477284624070869 
1211	 0.477269998007741 
1212	 0.477144673513172 
1213	 0.476668931501567 
1214	 0.476711445519715 
1215	 0.477040123675683 
1216	 0.477013170162534 
1217	 0.476997980244891 
1218	 0.477033600359822 
1219	 0.476845945065728 
1220	 0.476818117410389 
1221	 0.477265238528534 
1222	 0.477131904891072 
1223	 0.476437172142966 
1224	 0.476190931395999 
1225	 0.475822947953732 
1226	 0.475625301974176 
1227	 0.476025267774991 
1228	 0.476074478689416 
1229	 0.475758061262665 
1230	 0.475109195953002 
1231	 0.474790454578541 
1232	 0.474128704849559 
1233	 0.474011437850327 
1234	 0.474334520733754 
1235	 0.474507624834698 
1236	 0.474786265510705 
1237	 0.47504774952436 
1238	 0.475515849314341 
1239	 0.475685674765129 
1240	 0.475862162240832 
1241	 0.475806875900087 
1242	 0.47526388879112 
1243	 0.47497803174251 
1244	 0.47468905402079 
1245	 0.474382856696642 
1246	 0.474362682141673 
1247	 0.474462022580301 
1248	 0.474193786701932 
1249	 0.473640670454791 
1250	 0.473562067596827 
1251	 0.473282850265899 
1252	 0.473578956117185 
1253	 0.474553177640459 
1254	 0.475214401151172 
1255	 0.476278201930308 
1256	 0.476670388476355 
1257	 0.476769105590218 
1258	 0.476842867070328 
1259	 0.476468784661821 
1260	 0.476195248092568 
1261	 0.475837470129669 
1262	 0.475544670479542 
1263	 0.475295118904999 
1264	 0.474804969766216 
1265	 0.474445912024269 
1266	 0.474143125951619 
1267	 0.474013810166676 
1268	 0.473867740136458 
1269	 0.473838339633663 
1270	 0.474178308968235 
1271	 0.47407139897471 
1272	 0.473767928765382 
1273	 0.473615292397659 
1274	 0.473406085740039 
1275	 0.473265023628284 
1276	 0.473149905709471 
1277	 0.473056441539977 
1278	 0.472867293686876 
1279	 0.472824824542037 
1280	 0.472631049719477 
1281	 0.473075090589237 
1282	 0.473680346406788 
1283	 0.473887496859743 
1284	 0.47400587271789 
1285	 0.473934726631425 
1286	 0.474135689662478 
1287	 0.474409762086716 
1288	 0.474349314765208 
1289	 0.474339050526741 
1290	 0.474402370748938 
1291	 0.474177429941168 
1292	 0.473931584577351 
1293	 0.474082861006436 
1294	 0.473699292324538 
1295	 0.472183855833021 
1296	 0.471904140906103 
1297	 0.472329227636748 
1298	 0.472432055877262 
1299	 0.472888644303554 
1300	 0.473676997694208 
1301	 0.473842242947583 
1302	 0.474060440459283 
1303	 0.474409528035228 
1304	 0.474144173305932 
1305	 0.474251233424934 
1306	 0.474239354641921 
1307	 0.474020025421253 
1308	 0.474052394289328 
1309	 0.473761471189334 
1310	 0.472441576938094 
1311	 0.472349889209532 
1312	 0.473049042091798 
1313	 0.473295222396048 
1314	 0.474300018376338 
1315	 0.474560016436662 
1316	 0.474037628690974 
1317	 0.473738167979047 
1318	 0.473253285418125 
1319	 0.472584456807866 
1320	 0.472942603689024 
1321	 0.473190263881541 
1322	 0.473673519456076 
1323	 0.47423479325669 
1324	 0.474208621725381 
1325	 0.4737197523763 
1326	 0.473231549647472 
1327	 0.471883045792009 
1328	 0.47173244508265 
1329	 0.471830545100326 
1330	 0.472376008402791 
1331	 0.474780366401528 
1332	 0.475580003294556 
1333	 0.475873963417613 
1334	 0.475606710705573 
1335	 0.474229735514582 
1336	 0.473344688972807 
1337	 0.471860240137821 
1338	 0.471016638356209 
1339	 0.470357333752923 
1340	 0.469767977350602 
1341	 0.470252475158029 
1342	 0.472040471298145 
1343	 0.474729552553888 
1344	 0.477554277909693 
1345	 0.479248414010386 
1346	 0.480135652912327 
1347	 0.481671683629146 
1348	 0.481247601120242 
1349	 0.484173752712065 
1350	 0.492285718453481 
1351	 0.501844450963068 
1352	 0.519239795846929 
1353	 0.539930916317729 
1354	 0.556692599230056 
1355	 0.595730129102705 
1356	 0.606253358117739 
1357	 0.644400730051289 
1358	 0.513104750316568 
1359	 0.522872695754665 
1360	 0.816798269226992 
1361	 1.15136892451885 
1362	 2.10367331836221 
1363	 3.39384116595615 
1364	 2.59637924580219 
1365	 3.19339707106108 
1366	 4.91943951034674 
1367	 4.48442881394981 
1368	 3.1460275870691 
1369	 2.42839296157927 
1370	 1.50672285106097 
1371	 0.715345086936096 
1372	 0.573860452232486 
1373	 0.620455577230246 
1374	 0.581832424986929 
1375	 0.531565741347216 
1376	 0.537575926004938 
1377	 0.523518474816179 
1378	 0.574372487288835 
1379	 0.809378642905633 
1380	 0.926468408493414 
1381	 1.2687406793743 
1382	 1.48542975032238 
1383	 0.829904893637985 
1384	 0.681116155131647 
1385	 0.707657862494565 
1386	 0.770525365472353 
1387	 0.680908015531785 
1388	 0.648052004724194 
1389	 0.603698236118305 
1390	 0.537801202709906 
1391	 0.528860697468157 
1392	 0.579884213391027 
1393	 0.580755221262035 
1394	 0.554507090535633 
1395	 0.552764590096701 
1396	 0.558982060236059 
1397	 0.562144130293992 
1398	 0.567139141920951 
1399	 0.57508844010561 
1400	 0.59014428219048 
1401	 0.58805748319821 
1402	 0.588217397743984 
1403	 0.575591100676341 
1404	 0.541831975939382 
1405	 0.521150910983278 
1406	 0.493912497062965 
1407	 0.488225685502035 
1408	 0.503413569029091 
1409	 0.502345960542662 
1410	 0.500993405346406 
1411	 0.503770125200418 
1412	 0.492096587148247 
1413	 0.485748218974889 
1414	 0.491981800507887 
1415	 0.492680036996817 
1416	 0.495298657417187 
1417	 0.505104198392248 
1418	 0.503804097193666 
1419	 0.496916527489811 
1420	 0.492536978396248 
1421	 0.485898026338569 
1422	 0.48220180610767 
1423	 0.479423253475202 
1424	 0.478462618407121 
1425	 0.477717141451587 
1426	 0.478841722221379 
1427	 0.482686474026472 
1428	 0.483725193062784 
1429	 0.484381063367312 
1430	 0.485347096784984 
1431	 0.486793304218866 
1432	 0.486248049895649 
1433	 0.484455347041568 
1434	 0.483005283717339 
1435	 0.478706403635668 
1436	 0.476295158688517 
1437	 0.474489115159732 
1438	 0.476234245704982 
1439	 0.477083787855277 
1440	 0.476560378596738 
1441	 0.476318513118403 
1442	 0.473250035425357 
1443	 0.470735597746171 
1444	 0.471672091228453 
1445	 0.471915512757673 
1446	 0.473968366582389 
1447	 0.474149286095051 
1448	 0.472841959952976 
1449	 0.47346640912674 
1450	 0.474908301354131 
1451	 0.475283659339764 
1452	 0.47648253655629 
1453	 0.476345668143317 
1454	 0.475042771005518 
1455	 0.474282910373114 
1456	 0.472863083648732 
1457	 0.472914601124527 
1458	 0.473558109657728 
1459	 0.474044733625142 
1460	 0.475755765752413 
1461	 0.476542514459393 
1462	 0.47670980342197 
1463	 0.476947797494952 
1464	 0.477421043096479 
1465	 0.477178981029338 
1466	 0.475340600597406 
1467	 0.474699907032048 
1468	 0.474284736779953 
1469	 0.473945748705133 
1470	 0.474007827317121 
1471	 0.475433871934276 
1472	 0.475164066650933 
1473	 0.474617617111877 
1474	 0.47404829571287 
1475	 0.473491415007346 
1476	 0.472815293448616 
1477	 0.471571392966531 
1478	 0.471198081062141 
1479	 0.471231315335922 
1480	 0.471020150300638 
1481	 0.470929562152212 
1482	 0.471027419770036 
1483	 0.471269295947953 
1484	 0.471208487125551 
1485	 0.471363138284569 
1486	 0.471191787847782 
1487	 0.470604592260487 
1488	 0.47012466912386 
1489	 0.4693629068579 
1490	 0.469297576784064 
1491	 0.469162785212509 
1492	 0.469642371123226 
1493	 0.471640687813897 
1494	 0.471924366610277 
1495	 0.47170996241383 
1496	 0.471365156123765 
1497	 0.469682609013659 
1498	 0.468843614527571 
1499	 0.468489095198187 
1500	 0.468093906206818 
1501	 0.467650622188743 
1502	 0.467559013458413 
1503	 0.467804502775975 
1504	 0.468088273932463 
1505	 0.468244636858006 
1506	 0.468095983012662 
1507	 0.467956190839545 
1508	 0.467320470720412 
1509	 0.467279056688902 
1510	 0.467557844125515 
1511	 0.467686754868968 
1512	 0.467944637705319 
1513	 0.468081894477771 
1514	 0.468219168039804 
1515	 0.468175777436978 
1516	 0.468135221261324 
1517	 0.467740233461453 
1518	 0.466786243657189 
1519	 0.466592008356801 
1520	 0.466449588385583 
1521	 0.466577572470254 
1522	 0.467569976173864 
1523	 0.467670899289673 
1524	 0.467383212653264 
1525	 0.467163872884511 
1526	 0.466451179967489 
1527	 0.466240577002352 
1528	 0.466304472096538 
1529	 0.466298074647704 
1530	 0.466652366751603 
1531	 0.466555654529654 
1532	 0.466033169010772 
1533	 0.465887222280099 
1534	 0.465683210326537 
1535	 0.465575002965229 
1536	 0.4657877832571 
1537	 0.465886671701801 
1538	 0.466045297194505 
1539	 0.465965171422966 
1540	 0.465645921948552 
1541	 0.465541521924002 
1542	 0.465361758963381 
1543	 0.465190670076017 
1544	 0.465212263461247 
1545	 0.46522605184019 
1546	 0.465126902846353 
1547	 0.465074391305885 
1548	 0.465071200182219 
1549	 0.465321067538723 
1550	 0.464989706001311 
1551	 0.464283890299584 
1552	 0.464106328005882 
1553	 0.463761063169207 
1554	 0.463790810652608 
1555	 0.464420017693699 
1556	 0.464563556064531 
1557	 0.464519550798975 
1558	 0.464627612164351 
1559	 0.46473981480006 
1560	 0.464832781451632 
1561	 0.465054263906136 
1562	 0.464980855115243 
1563	 0.464691129828538 
1564	 0.464552986012991 
1565	 0.464235789532945 
1566	 0.464181561186997 
1567	 0.464183740053844 
1568	 0.464524275656733 
1569	 0.46550990498455 
1570	 0.465657466122693 
1571	 0.465598390421732 
1572	 0.465595184567344 
1573	 0.465084530942457 
1574	 0.464681992613446 
1575	 0.464725337263695 
1576	 0.464219390062326 
1577	 0.462728962397909 
1578	 0.462301160170329 
1579	 0.462204962342506 
1580	 0.462280101611964 
1581	 0.463088991127721 
1582	 0.463535137240905 
1583	 0.463891532115251 
1584	 0.464229202237683 
1585	 0.464919387045722 
1586	 0.464891996739669 
1587	 0.464163004055581 
1588	 0.463949711690853 
1589	 0.46321634328641 
1590	 0.463174149045375 
1591	 0.464370331677465 
1592	 0.464555138027111 
1593	 0.464144798979759 
1594	 0.464236126329179 
1595	 0.464201256876468 
1596	 0.464067403105013 
1597	 0.464768579920725 
1598	 0.464612863161792 
1599	 0.463012257935551 
1600	 0.462434945828239 
1601	 0.462308133505662 
1602	 0.461815988084209 
1603	 0.461643955281942 
1604	 0.461635554873206 
1605	 0.460458599744191 
1606	 0.459961650599322 
1607	 0.460720206167444 
1608	 0.461233362485878 
1609	 0.462277745231553 
1610	 0.463234540078201 
1611	 0.462859348136521 
1612	 0.462684057302386 
1613	 0.462040359686329 
1614	 0.461413067299965 
1615	 0.461646415300827 
1616	 0.461370560542495 
1617	 0.461448317310121 
1618	 0.461940444258147 
1619	 0.46200865473749 
1620	 0.462477700336126 
1621	 0.462650444028097 
1622	 0.462763485513573 
1623	 0.462646003870482 
1624	 0.46250920421445 
1625	 0.462110126421825 
1626	 0.46128307496975 
1627	 0.461082020291366 
1628	 0.460783122363888 
1629	 0.460710054631175 
1630	 0.461132821458847 
1631	 0.461559068202523 
1632	 0.462032739808647 
1633	 0.462583495124661 
1634	 0.463610407808517 
1635	 0.463821315692089 
1636	 0.463739777146795 
1637	 0.463374644943166 
1638	 0.462425721403134 
1639	 0.461836014904585 
1640	 0.460727644262242 
1641	 0.460804556523592 
1642	 0.462083904592551 
1643	 0.461626313991509 
1644	 0.46079828237498 
1645	 0.460596597377711 
1646	 0.4593035458731 
1647	 0.45938964046012 
1648	 0.461565180894276 
1649	 0.461561697884199 
1650	 0.460236455932446 
1651	 0.460120086216366 
1652	 0.459486895259577 
1653	 0.459695098217257 
1654	 0.461399855223612 
1655	 0.462041221653177 
1656	 0.462634235710657 
1657	 0.462782772984305 
1658	 0.462171605140378 
1659	 0.461954559766172 
1660	 0.461202694055353 
1661	 0.461180632510761 
1662	 0.462219812057538 
1663	 0.462598975433583 
1664	 0.463055157148682 
1665	 0.463323139386205 
1666	 0.463059045566008 
1667	 0.462692675255864 
1668	 0.461988957027987 
1669	 0.461863379643735 
1670	 0.462082503578115 
1671	 0.462014446859523 
1672	 0.4620169286256 
1673	 0.462360196825494 
1674	 0.462411311240649 
1675	 0.462732442067135 
1676	 0.464394281793504 
1677	 0.464524778315494 
1678	 0.463540338729583 
1679	 0.462899939734543 
1680	 0.461539238084741 
1681	 0.460798626155808 
1682	 0.460438037998119 
1683	 0.460499009638099 
1684	 0.460887181613416 
1685	 0.460991824084022 
1686	 0.461205329262291 
1687	 0.461263414405534 
1688	 0.461224154542828 
1689	 0.461423702541098 
1690	 0.461665509448699 
1691	 0.462311207727907 
1692	 0.463883400753382 
1693	 0.463856730560138 
1694	 0.463001687391571 
1695	 0.46266906522244 
1696	 0.461226637382814 
1697	 0.46081327567315 
1698	 0.461595105640217 
1699	 0.461903381296941 
1700	 0.461813778103584 
1701	 0.462044433355974 
1702	 0.463006065007816 
1703	 0.463449920035206 
1704	 0.463585156350992 
1705	 0.463748067219229 
1706	 0.463856570141147 
1707	 0.463009021430151 
1708	 0.462016453556278 
1709	 0.461392806427871 
1710	 0.459353259222385 
1711	 0.459018756815319 
1712	 0.45980979623965 
1713	 0.460644207539205 
1714	 0.462788897742558 
1715	 0.463643569947945 
1716	 0.464481880572519 
1717	 0.463919770494167 
1718	 0.46146175467082 
1719	 0.460605204400727 
1720	 0.459855337443389 
1721	 0.459690142215837 
1722	 0.46030788208994 
1723	 0.460954889339543 
1724	 0.46218473956608 
1725	 0.462344753955535 
1726	 0.462183803056167 
1727	 0.462008206619861 
1728	 0.460940613129241 
1729	 0.460896263588985 
1730	 0.461837841820324 
1731	 0.462187744924478 
1732	 0.462523820414924 
1733	 0.461915028225264 
1734	 0.460540457315818 
1735	 0.46018594711971 
1736	 0.460278724287727 
1737	 0.459782833810806 
1738	 0.460540005791385 
1739	 0.461296321701678 
1740	 0.461126674241896 
1741	 0.461177821642858 
1742	 0.460787222316568 
1743	 0.460350569030896 
1744	 0.459371645211737 
1745	 0.460087177827303 
1746	 0.461902821004972 
1747	 0.461451696143292 
1748	 0.461908534008677 
1749	 0.462452808511882 
1750	 0.460837588598725 
1751	 0.460259838166406 
1752	 0.460464674573072 
1753	 0.459608443282821 
1754	 0.459187899854153 
1755	 0.4593169656653 
1756	 0.459010983398776 
1757	 0.458689464947836 
1758	 0.458689530029199 
1759	 0.458685466218091 
1760	 0.45856080985427 
1761	 0.45907281898729 
1762	 0.459921332092848 
1763	 0.459924177418519 
1764	 0.459480597285859 
1765	 0.458975672120959 
1766	 0.457896810429203 
1767	 0.459092246613612 
1768	 0.461050140120413 
1769	 0.461208593634332 
1770	 0.460893858176918 
1771	 0.459207102215277 
1772	 0.45772691599515 
1773	 0.456117753903861 
1774	 0.456213273319897 
1775	 0.457742946712425 
1776	 0.458388994201668 
1777	 0.460838425291019 
1778	 0.461590580371778 
1779	 0.459913651618323 
1780	 0.459405494338514 
1781	 0.459549608898671 
1782	 0.46045418369239 
1783	 0.464072397162656 
1784	 0.465328076367051 
1785	 0.46232107750125 
1786	 0.460839400106577 
1787	 0.458160495085959 
1788	 0.455596556107 
1789	 0.455598707296741 
1790	 0.45612325516402 
1791	 0.456421098875479 
1792	 0.457830761048266 
1793	 0.463067284666267 
1794	 0.465140803791534 
1795	 0.46701799142324 
1796	 0.466273991954963 
1797	 0.468584999729592 
1798	 0.471372058746908 
1799	 0.47052228080117 
1800	 0.469337120508758 
1801	 0.485004436377797 
1802	 0.488198099750873 
1803	 0.486385897838828 
1804	 0.482812221770099 
1805	 0.467389703925946 
1806	 0.462760772593097 
1807	 0.458869604926978 
1808	 0.458632692868644 
1809	 0.471258220095666 
1810	 0.483516931309385 
1811	 0.487626903730519 
1812	 0.483359917790194 
1813	 0.485685948877497 
1814	 0.481028983225141 
1815	 0.478826291932724 
1816	 0.484050385369909 
1817	 0.491030777950581 
1818	 0.49126245530401 
1819	 0.462746710471962 
1820	 0.453075162202241 
1821	 0.445101122460174 
1822	 0.456238036176037 
1823	 0.492194559347721 
1824	 0.512656589550008 
1825	 0.573195517829377 
1826	 0.597625772446183 
1827	 0.574743567510378 
1828	 0.541422616363749 
1829	 0.520386763094151 
1830	 0.470719145929457 
1831	 0.405085629161177 
1832	 0.546425360563457 
1833	 0.628231012044369 
1834	 0.603395218706757 
1835	 0.453723958396932 
1836	 0.358219864167486 
1837	-0.140579629237434 
1838	-1.24518255993383 
1839	-0.657905348761043 
1840	-0.217452851916107 
1841	-3.14534754611753E-02 
1842	 0.334430595978514 
1843	 0.507813749561822 
1844	 0.448132335374456 
1845	 0.423083453939266 
1846	 0.465768168203589 
1847	-0.109588570324167 
1848	-0.395555115191039 
1849	-0.558241728454017 
1850	-0.960518750563591 
1851	-0.815686441737339 
1852	-0.296643202436076 
1853	 6.40408977136837E-02 
1854	 0.763794107137881 
1855	 0.941641007216368 
1856	 0.960513901028128 
1857	 1.09037280282651 
1858	 0.911779666444472 
1859	 0.673655861770694 
1860	 0.881275552167866 
1861	 1.12300610509378 
1862	 1.14528172354466 
1863	 1.09084558954119 
1864	 1.11587159909573 
1865	 1.14133732900895 
1866	 1.0008655630069 
1867	 1.07353367152031 
1868	 1.40036060284486 
1869	 1.3497157813168 
1870	 0.970429723865624 
1871	 0.621530458864717 
1872	 0.437114710859934 
1873	 0.372885870368765 
1874	 0.611984192239275 
1875	 0.757150421156464 
1876	 1.02119806154686 
1877	 0.877242716855646 
1878	 0.668857764732291 
1879	 0.56081279610569 
1880	 0.490603227419163 
1881	 0.351278458210977 
1882	 0.34049331376196 
1883	 0.420351997389915 
1884	 0.40983131571085 
1885	 0.355212712093501 
1886	 0.387964150790722 
1887	 0.359277337308243 
1888	 0.273708909507126 
1889	 0.309743510165736 
1890	 0.311606310822441 
1891	 0.300761281163322 
1892	 0.423911856793977 
1893	 0.398227436686952 
1894	 0.320948695480845 
1895	 0.352831450813673 
1896	 0.479888887650425 
1897	 0.581595632252746 
1898	 0.756518849963408 
1899	 1.05551826950363 
1900	 1.09935501081568 
1901	 0.883178936037136 
1902	 0.64956673468436 
1903	 0.434433405241584 
1904	 0.379012571129433 
1905	 0.345440305569191 
1906	 0.265613881486867 
1907	 0.179369947540197 
1908	 7.04573091807656E-02 
1909	 5.45461425166242E-02 
1910	 0.181388789485238 
1911	 0.225720284171603 
1912	 0.523001450641201 
1913	 0.723022940885426 
1914	 0.587552513769234 
1915	 0.532634049678524 
1916	 0.539752252026189 
1917	 0.521924492439193 
1918	 0.473188661593033 
1919	 0.510619676791936 
1920	 0.564184422786242 
1921	 0.54110531024138 
1922	 0.543389403317661 
1923	 0.526871175964884 
1924	 0.481800088344943 
1925	 0.492761245428804 
1926	 0.509285772824049 
1927	 0.516291573268374 
1928	 0.536591700942054 
1929	 0.577913015778338 
1930	 0.547632504055614 
1931	 0.513843314987887 
1932	 0.496860948649775 
1933	 0.476901693019862 
1934	 0.472187222563313 
1935	 0.483843208116447 
1936	 0.496576021198362 
1937	 0.508722624025721 
1938	 0.513560436308989 
1939	 0.497530746872132 
1940	 0.492238482349195 
1941	 0.48643126433209 
1942	 0.483393973287448 
1943	 0.485120213829804 
1944	 0.490262329764979 
1945	 0.487875125603653 
1946	 0.486791445766786 
1947	 0.481261882560081 
1948	 0.473344302595584 
1949	 0.471923818529257 
1950	 0.470411420487128 
1951	 0.469640935270877 
1952	 0.470695141277864 
1953	 0.473337488136661 
1954	 0.471988472625304 
1955	 0.47035592000481 
1956	 0.46588247451881 
1957	 0.462724097186787 
1958	 0.461322359514055 
1959	 0.460256048790717 
1960	 0.46038173248553 
1961	 0.458911008654937 
1962	 0.459906614235103 
1963	 0.461903370823593 
1964	 0.463007890010967 
1965	 0.463774568239891 
1966	 0.467236953816319 
1967	 0.468784010195328 
1968	 0.469029626864458 
1969	 0.469470450497746 
1970	 0.468593050587394 
1971	 0.466861288597533 
1972	 0.465679393728743 
1973	 0.465901438065433 
1974	 0.467642086047627 
1975	 0.467844356400785 
1976	 0.467374805906982 
1977	 0.469208729910781 
1978	 0.470507373197436 
1979	 0.470261963156265 
1980	 0.471405441466274 
1981	 0.470423680618122 
1982	 0.468249459794378 
1983	 0.468549163720905 
1984	 0.468189041538795 
1985	 0.468047174948636 
1986	 0.467652687491297 
1987	 0.466675319690231 
1988	 0.465556456135693 
1989	 0.464043015867944 
1990	 0.4631641425019 
1991	 0.46317344546328 
1992	 0.464189182919177 
1993	 0.465364670646991 
1994	 0.466762761854265 
1995	 0.466817642739276 
1996	 0.4639411968672 
1997	 0.462536936955747 
1998	 0.460446006709964 
1999	 0.457808687844873 
2000	 0.45561037956377 
2001	 0.453514890690167 
2002	 0.449214141471971 
2003	 0.447291711299576 
2004	 0.452025150277705 
2005	 0.459868973470385 
2006	 0.467302965686821 
2007	 0.465888428571927 
2008	 0.466858452363808 
2009	 0.466281847141773 
2010	 0.464503769677215 
2011	 0.461985180053683 
2012	 0.460979859564177 
2013	 0.455344244850308 
2014	 0.455946140658954 
2015	 0.461328711912407 
2016	 0.46375502839535 
2017	 0.469517358165664 
2018	 0.474629205855367 
2019	 0.473995251835599 
2020	 0.474960917268554 
2021	 0.473318861126712 
2022	 0.4726372957581 
2023	 0.472630641957783 
2024	 0.473125882670882 
2025	 0.472752353714396 
2026	 0.47240661161538 
2027	 0.472374993030287 
2028	 0.472032635431175 
2029	 0.472053530125577 
2030	 0.473200851408385 
2031	 0.472705228237721 
2032	 0.471751791195216 
2033	 0.471275409435104 
2034	 0.470125648681045 
2035	 0.469881464603022 
2036	 0.470098359443911 
2037	 0.471465916908575 
2038	 0.471446333863153 
2039	 0.470908297856296 
2040	 0.470917718123494 
2041	 0.469934102074279 
2042	 0.470107841527762 
2043	 0.471417718403547 
2044	 0.473177486104979 
2045	 0.47512935912046 
2046	 0.475601529777296 
2047	 0.475428497408599 
2048	 0.476204337294746 
2049	 0.474729419014569 
2050	 0.472956326015206 
2051	 0.472016645086602 
2052	 0.471138780540809 
2053	 0.470583537356846 
2054	 0.470673980419022 
2055	 0.471339609227123 
2056	 0.47351039229375 
2057	 0.473403529357313 
2058	 0.473308530578446 
2059	 0.475373895026925 
2060	 0.476930564506532 
2061	 0.47753188036323 
2062	 0.476098330026859 
2063	 0.472567194661876 
2064	 0.47064664018777 
2065	 0.467004789160328 
2066	 0.466103012192962 
2067	 0.467548564563202 
2068	 0.46858204601997 
2069	 0.470655228379497 
2070	 0.471511823763753 
2071	 0.471792567817976 
2072	 0.473140047653116 
2073	 0.475050513777815 
2074	 0.474125166819168 
2075	 0.474516403106686 
2076	 0.475574633434184 
2077	 0.474871581351894 
2078	 0.475080731833714 
2079	 0.474448284871549 
2080	 0.472471581296683 
2081	 0.47192994232898 
2082	 0.471094401347662 
2083	 0.471121346895058 
2084	 0.473448336764158 
2085	 0.474519242197856 
2086	 0.474715717896645 
2087	 0.476435575968986 
2088	 0.477834349326989 
2089	 0.476912363774799 
2090	 0.477008739748945 
2091	 0.475272117195567 
2092	 0.474493036898629 
2093	 0.474605831050005 
2094	 0.473747149951234 
2095	 0.473360444920176 
2096	 0.473037914020633 
2097	 0.47005107810845 
2098	 0.470846726739561 
2099	 0.475459896975328 
2100	 0.47698201334217 
2101	 0.478883201443448 
2102	 0.480946069954332 
2103	 0.479098731113459 
2104	 0.477764177123834 
2105	 0.477979012921877 
2106	 0.47791339873009 
2107	 0.477630686957328 
2108	 0.478263621035417 
2109	 0.477482148681705 
2110	 0.475821597032461 
2111	 0.475722473902442 
2112	 0.476060967887754 
2113	 0.476348378580549 
2114	 0.478071899697312 
2115	 0.478949621336205 
2116	 0.478986658094232 
2117	 0.479743581383425 
2118	 0.480766528099859 
2119	 0.482338462532968 
2120	 0.482355513555099 
2121	 0.481370827598697 
2122	 0.481336446930922 
2123	 0.479493506647168 
2124	 0.478451223841817 
2125	 0.480421943182609 
2126	 0.479997371420695 
2127	 0.481288865466076 
2128	 0.481976814231323 
2129	 0.482773452902493 
2130	 0.482571274565334 
2131	 0.481296988351259 
2132	 0.480734046711587 
2133	 0.479751205994572 
2134	 0.479992839416591 
2135	 0.48096181451049 
2136	 0.483382624671716 
2137	 0.484805930895085 
2138	 0.485383850515625 
2139	 0.485568119824881 
2140	 0.484795335328456 
2141	 0.485204226554311 
2142	 0.484816455332862 
2143	 0.483868116957236 
2144	 0.484614867028494 
2145	 0.48435129780028 
2146	 0.483620810965729 
2147	 0.482238031484232 
2148	 0.479621443304137 
2149	 0.478805344270883 
2150	 0.47913764775811 
2151	 0.47805205346418 
2152	 0.477780467969993 
2153	 0.476315610263642 
2154	 0.473218796172032 
2155	 0.471215446997141 
2156	 0.472574080282124 
2157	 0.474308815662844 
2158	 0.476225101639646 
2159	 0.477255144925295 
2160	 0.477493536997022 
2161	 0.476711711318557 
2162	 0.475065267055644 
2163	 0.473914409903278 
2164	 0.473284722336376 
2165	 0.472965862910815 
2166	 0.47320529199487 
2167	 0.474462631417993 
2168	 0.4754434422123 
2169	 0.476987741522511 
2170	 0.476910808010298 
2171	 0.476760920697212 
2172	 0.474733915212898 
2173	 0.473093733034134 
2174	 0.47248023272012 
2175	 0.471928230060936 
2176	 0.471495098311599 
2177	 0.469156465465307 
2178	 0.466914735148166 
2179	 0.464428308817427 
2180	 0.462075102575285 
2181	 0.461751719488394 
2182	 0.461345996552232 
2183	 0.460961785454238 
2184	 0.461564829432315 
2185	 0.462039672269333 
2186	 0.461566179236728 
2187	 0.462080576111134 
2188	 0.463863550057935 
2189	 0.464033965597476 
2190	 0.464080371191363 
2191	 0.464732252437413 
2192	 0.464113800188879 
2193	 0.465081280679692 
2194	 0.468534609885328 
2195	 0.469784551540876 
2196	 0.471131472767235 
2197	 0.472841892228487 
2198	 0.473011974493336 
2199	 0.472596488760512 
2200	 0.471348082259276 
2201	 0.467779202320591 
2202	 0.465658975664165 
2203	 0.464734894632117 
2204	 0.464340771885455 
2205	 0.467015499144042 
2206	 0.466987696470689 
2207	 0.465397192063078 
2208	 0.464722050681753 
2209	 0.462883232136749 
2210	 0.462009756528214 
2211	 0.462123324311915 
2212	 0.462049126029665 
2213	 0.461662133423518 
2214	 0.462976278166498 
2215	 0.463309075294658 
2216	 0.463584527158315 
2217	 0.465557798096891 
2218	 0.466481321030615 
2219	 0.464973213832033 
2220	 0.465304397452844 
2221	 0.46349585111131 
2222	 0.46063146302978 
2223	 0.461735843675826 
2224	 0.461386140350553 
2225	 0.461361925646899 
2226	 0.461501644792877 
2227	 0.460965164209948 
2228	 0.459886607804958 
2229	 0.459174611030393 
2230	 0.458087948225119 
2231	 0.457733734990906 
2232	 0.457487033762773 
2233	 0.457195861858607 
2234	 0.457488083039013 
2235	 0.457618280545621 
2236	 0.457019417784795 
2237	 0.457435597395555 
2238	 0.45962176896178 
2239	 0.459536163040498 
2240	 0.457366253613371 
2241	 0.457333967616716 
2242	 0.45531664231173 
2243	 0.454561287014324 
2244	 0.45620949731278 
2245	 0.457056296645265 
2246	 0.458817361627694 
2247	 0.456845984729429 
2248	 0.454329137330237 
2249	 0.455402559789239 
2250	 0.4557036323705 
2251	 0.458734239760339 
2252	 0.464244550299253 
2253	 0.466368713247677 
2254	 0.467424288085971 
2255	 0.467550936807282 
2256	 0.465661304072379 
2257	 0.460201194239869 
2258	 0.458513319688344 
2259	 0.456356927582805 
2260	 0.456305086469833 
2261	 0.459403629243924 
2262	 0.460641916365031 
2263	 0.46236192891237 
2264	 0.463386410218914 
2265	 0.464295492498639 
2266	 0.464238617278715 
2267	 0.4631983441445 
2268	 0.461163160414748 
2269	 0.457527086969315 
2270	 0.453697934329208 
2271	 0.453964418185284 
2272	 0.456386027649358 
2273	 0.456225868979654 
2274	 0.461395845945961 
2275	 0.46493876805614 
2276	 0.464277272065418 
2277	 0.46966005725818 
2278	 0.469893031271409 
2279	 0.467501207825097 
2280	 0.466287267972519 
2281	 0.460797703170703 
2282	 0.457736608386062 
2283	 0.456949891139234 
2284	 0.457130214440368 
2285	 0.457857173645036 
2286	 0.46145712446628 
2287	 0.46175645269689 
2288	 0.460782075572027 
2289	 0.459709467396441 
2290	 0.457929839612851 
2291	 0.4564564039479 
2292	 0.453320257256102 
2293	 0.453104285071174 
2294	 0.454213450558131 
2295	 0.454099185318142 
2296	 0.454508024849114 
2297	 0.457013730757068 
2298	 0.460553210519265 
2299	 0.463243944609072 
2300	 0.468829469905283 
2301	 0.471071280413902 
2302	 0.471317068431287 
2303	 0.47340629621364 
2304	 0.47075631517119 
2305	 0.471870391289642 
2306	 0.468297232147371 
2307	 0.457221835634853 
2308	 0.453902384911474 
2309	 0.449620246933167 
2310	 0.448599623061368 
2311	 0.453778436222481 
2312	 0.456505886285643 
2313	 0.461318094927277 
2314	 0.464240324206273 
2315	 0.464769035619945 
2316	 0.465119340051609 
2317	 0.463215959313265 
2318	 0.464048380091398 
2319	 0.464923237850109 
2320	 0.467807422324395 
2321	 0.473229974593413 
2322	 0.472046249910317 
2323	 0.469015124128207 
2324	 0.470988279961827 
2325	 0.470545161086573 
2326	 0.470554187582811 
2327	 0.47522371816182 
2328	 0.477438646962814 
2329	 0.47528817035294 
2330	 0.47509996782579 
2331	 0.478346267208052 
2332	 0.477975303302982 
2333	 0.473980472287166 
2334	 0.474294376927482 
2335	 0.475470420320823 
2336	 0.475246128490334 
2337	 0.476975358325569 
2338	 0.476957011260503 
2339	 0.472795356797575 
2340	 0.471239538877981 
2341	 0.472525094111843 
2342	 0.471495260182104 
2343	 0.472300762113555 
2344	 0.47215792332124 
2345	 0.468416541761836 
2346	 0.467772964157838 
2347	 0.469643426316114 
2348	 0.469491713654709 
2349	 0.474150399727261 
2350	 0.477406207051924 
2351	 0.483981356299206 
2352	 0.487111496362831 
2353	 0.482874413601956 
2354	 0.483899346442124 
2355	 0.477781427254308 
2356	 0.470236285614399 
2357	 0.473832718161382 
2358	 0.475706756492578 
2359	 0.475970263938368 
2360	 0.47625718785843 
2361	 0.47309852084805 
2362	 0.464768732950439 
2363	 0.457058921795871 
2364	 0.460836829118297 
2365	 0.463299017478428 
2366	 0.46084152198471 
2367	 0.466900167801179 
2368	 0.464874025073671 
2369	 0.460604865525065 
2370	 0.468751962796313 
2371	 0.472088190751325 
2372	 0.471264376696174 
2373	 0.468900378478257 
2374	 0.465727828996564 
2375	 0.46505405774927 
2376	 0.465198608346084 
2377	 0.466686712853927 
2378	 0.47173220293874 
2379	 0.474038650871696 
2380	 0.475058991696735 
2381	 0.48209351238054 
2382	 0.485638429785511 
2383	 0.49410023990508 
2384	 0.50939797617967 
2385	 0.507686002226831 
2386	 0.504574265412377 
2387	 0.493216893577729 
2388	 0.46994208618715 
2389	 0.459510641669508 
2390	 0.446288605162391 
2391	 0.435904602193794 
2392	 0.446625812148491 
2393	 0.463590502742638 
2394	 0.474225877034362 
2395	 0.486585711809791 
2396	 0.491423742796307 
2397	 0.486695384594574 
2398	 0.49102090707194 
2399	 0.491312285456917 
2400	 0.489155737858334 
2401	 0.488787305231825 
2402	 0.483273154931964 
2403	 0.486092961568271 
2404	 0.489419475424305 
2405	 0.489616531088731 
2406	 0.494402902983286 
2407	 0.502212993824927 
2408	 0.501607655430888 
2409	 0.47617256543612 
2410	 0.447528308297896 
2411	 0.424297229646188 
2412	 0.412695018448636 
2413	 0.434280561711218 
2414	 0.475603372194908 
2415	 0.505694087811888 
2416	 0.530174803255774 
2417	 0.556296066826367 
2418	 0.576731816493979 
2419	 0.588562691708324 
2420	 0.574100426409099 
2421	 0.548904393447687 
2422	 0.524554913614866 
2423	 0.523089476915014 
2424	 0.542589800389861 
2425	 0.564187222842099 
2426	 0.576871465669558 
2427	 0.562611808533546 
2428	 0.532278965769512 
2429	 0.501011362636573 
2430	 0.480603431808826 
2431	 0.475637122567117 
2432	 0.492999054571659 
2433	 0.514622604460165 
2434	 0.518929118112597 
2435	 0.507714505028738 
2436	 0.477292751389886 
2437	 0.4502631829599 
2438	 0.449211049004341 
2439	 0.465188970802641 
2440	 0.470407345057105 
2441	 0.486310394657236 
2442	 0.488736195746652 
2443	 0.469074993885307 
2444	 0.472394950074177 
2445	 0.477985658638709 
2446	 0.514621370675004 
2447	 0.587007338256363 
2448	 0.621874560592148 
2449	 0.618754304249085 
2450	 0.596479900717947 
2451	 0.525343418908381 
2452	 0.467993184006843 
2453	 0.486000215066286 
2454	 0.494754195503473 
2455	 0.494441867397425 
2456	 0.515749806481356 
2457	 0.513354951911194 
2458	 0.510377230247074 
2459	 0.529731333971215 
2460	 0.535932203469761 
2461	 0.550750897725338 
2462	 0.570007931631469 
2463	 0.571693208141331 
2464	 0.532979515940655 
2465	 0.48070812423032 
2466	 0.451224573857827 
2467	 0.445029194003904 
2468	 0.466294845124532 
2469	 0.475067370691384 
2470	 0.474036968449752 
2471	 0.442490370676495 
2472	 0.454309935862591 
2473	 0.545510024587169 
2474	 0.617908806562124 
2475	 0.657925874781313 
2476	 0.638846255727077 
2477	 0.582279021455084 
2478	 0.49457373605165 
2479	 0.501542191946432 
2480	 0.505764108037642 
2481	 0.611837715596752 
2482	 0.681352832482847 
2483	 0.646355169789545 
2484	 0.652573856539806 
2485	 0.674446386537621 
2486	 0.679446555050516 
2487	 0.70649396885252 
2488	 0.673801223988696 
2489	 0.559500683462985 
2490	 0.513177555791363 
2491	 0.398271963046997 
2492	 0.377764790965128 
2493	 0.55991246477034 
2494	 0.527570474469429 
2495	 0.437804608872501 
2496	 0.414423704588134 
2497	 0.334798555427569 
2498	 0.356963352481109 
2499	 0.481629804801058 
2500	 0.510878262436503 
