Jaz Data File
++++++++++++++++++++++++++++++++++++
Date: Mon Apr 25 12:36:56 2016
User: jaz
Dark Spectrum Present: No
Reference Spectrum Present: Yes
Processed Spectrum Present: No
Spectrometers: JAZA3098
Integration Time (usec): 926000 (JAZA3098)
Spectra Averaged: 1 (JAZA3098)
Boxcar Smoothing: 0 (JAZA3098)
Correct for Electrical Dark: No (JAZA3098)
Strobe/Lamp Enabled: No (JAZA3098)
Correct for Detector Non-linearity: No (JAZA3098)
Correct for Stray Light: No (JAZA3098)
Number of Pixels in Processed Spectrum: 2048
>>>>>Begin Processed Spectral Data<<<<<
W	R	S
190.313904	0.000000	0.000000
190.695511	0.000000	0.000000
191.077087	1215.787231	1247.424805
191.458633	1204.488159	1213.527466
191.840149	1199.968506	1254.204346
192.221634	1276.802612	1288.101685
192.603088	1333.298340	1312.959839
192.984528	1401.093140	1383.014526
193.365921	1367.195679	1373.975220
193.747284	1331.038452	1263.243652
194.128616	1267.763306	1315.219727
194.509918	1346.857300	1385.274292
194.891190	1306.180420	1349.117065
195.272446	1312.959839	1367.195679
195.653656	1475.667480	1509.564819
196.034836	1376.234985	1383.014526
196.416000	1337.817993	1346.857300
196.797104	1362.676025	1337.817993
197.178192	1376.234985	1353.636719
197.559265	1337.817993	1317.479492
197.940292	1317.479492	1342.337646
198.321304	1306.180420	1324.259033
198.702271	1360.416260	1303.920532
199.083221	1344.597412	1312.959839
199.464111	1342.337646	1358.156372
199.844986	1362.676025	1303.920532
200.225830	1247.424805	1358.156372
200.606659	1342.337646	1312.959839
200.987427	1473.407593	1432.730713
201.368195	1383.014526	1373.975220
201.748917	1373.975220	1364.935913
202.129608	1283.582031	1351.376953
202.510284	1369.455566	1389.793945
202.890915	1263.243652	1317.479492
203.271515	1364.935913	1333.298340
203.652100	1367.195679	1333.298340
204.032623	1290.361572	1276.802612
204.413147	1355.896606	1306.180420
204.793625	1412.392212	1364.935913
205.174088	1297.140991	1315.219727
205.554504	1308.440186	1294.881226
205.934906	1333.298340	1260.983765
206.315247	1315.219727	1401.093140
206.695587	1236.125732	1319.739380
207.075882	1412.392212	1337.817993
207.456146	1274.542725	1310.700073
207.836380	1394.313599	1331.038452
208.216599	1324.259033	1310.700073
208.596771	1220.306885	1279.062378
208.976913	1385.274292	1380.754639
209.357025	1480.187134	1493.746094
209.737106	1326.518799	1349.117065
210.117157	1312.959839	1385.274292
210.497177	1337.817993	1315.219727
210.877167	1369.455566	1288.101685
211.257126	1294.881226	1233.865845
211.637070	1385.274292	1328.778687
212.016968	1294.881226	1380.754639
212.396835	1290.361572	1331.038452
212.776672	1335.558105	1204.488159
213.156464	1306.180420	1301.660645
213.536255	1270.023071	1270.023071
213.916000	1310.700073	1288.101685
214.295700	1358.156372	1276.802612
214.675400	1367.195679	1301.660645
215.055038	1355.896606	1213.527466
215.434662	1394.313599	1396.573486
215.814240	1419.171753	1335.558105
216.193787	1401.093140	1301.660645
216.573334	1392.053833	1344.597412
216.952820	1355.896606	1333.298340
217.332275	1383.014526	1231.606079
217.711716	1514.084473	1444.029785
218.091125	1358.156372	1281.322266
218.470505	1554.761353	1462.108521
218.849854	1392.053833	1353.636719
219.229156	1367.195679	1410.132446
219.608444	1383.014526	1412.392212
219.987671	1538.942627	1475.667480
220.366898	1362.676025	1439.510132
220.746094	1421.431519	1446.289673
221.125244	1446.289673	1419.171753
221.504364	1396.573486	1358.156372
221.883469	1270.023071	1321.999146
222.262512	1385.274292	1317.479492
222.641556	1355.896606	1272.282959
223.020554	1362.676025	1364.935913
223.399521	1281.322266	1315.219727
223.778473	1371.715332	1324.259033
224.157364	1290.361572	1297.140991
224.536240	1301.660645	1254.204346
224.915085	1337.817993	1240.645386
225.293900	1306.180420	1299.400879
225.672684	1425.951172	1324.259033
226.051437	1396.573486	1308.440186
226.430161	1301.660645	1288.101685
226.808838	1299.400879	1344.597412
227.187500	1493.746094	1459.848633
227.566132	1430.470825	1283.582031
227.944717	1367.195679	1405.612793
228.323288	1446.289673	1346.857300
228.701813	1317.479492	1383.014526
229.080307	1337.817993	1227.086426
229.458786	1319.739380	1285.841919
229.837234	1491.486206	1301.660645
230.215637	1383.014526	1294.881226
230.594009	1439.510132	1260.983765
230.972351	1482.446899	1319.739380
231.350662	1514.084473	1290.361572
231.728958	1509.564819	1321.999146
232.107193	1507.305054	1358.156372
232.485413	1423.691406	1258.723999
232.863602	1432.730713	1258.723999
233.241760	1484.706787	1310.700073
233.619873	1437.250366	1281.322266
233.997986	1473.407593	1387.534180
234.376038	1464.368286	1333.298340
234.754074	1491.486206	1387.534180
235.132065	1439.510132	1321.999146
235.510025	1505.045166	1333.298340
235.887970	1468.887939	1308.440186
236.265869	1480.187134	1328.778687
236.643738	1425.951172	1378.494873
237.021576	1453.069214	1285.841919
237.399384	1326.518799	1224.826538
237.777161	1532.163086	1369.455566
238.154892	1414.652100	1331.038452
238.532623	1471.147827	1267.763306
238.910309	1507.305054	1315.219727
239.287949	1434.990479	1267.763306
239.665573	1401.093140	1380.754639
240.043167	1547.981934	1319.739380
240.420715	1475.667480	1294.881226
240.798233	1462.108521	1360.416260
241.175735	1439.510132	1321.999146
241.553207	1491.486206	1301.660645
241.930634	1486.966553	1308.440186
242.308014	1599.958008	1349.117065
242.685394	1602.217773	1319.739380
243.062729	1760.405762	1392.053833
243.440033	1647.414307	1272.282959
243.817307	1810.121948	1303.920532
244.194534	1785.263794	1355.896606
244.571747	1807.862061	1364.935913
244.948929	1733.287720	1326.518799
245.326065	1771.704834	1299.400879
245.703186	1726.508301	1267.763306
246.080261	1699.390381	1299.400879
246.457306	1633.855347	1233.865845
246.834320	1764.925415	1283.582031
247.211304	1801.082642	1317.479492
247.588257	1801.082642	1324.259033
247.965195	2002.207275	1405.612793
248.342087	2112.938721	1310.700073
248.718933	2067.742188	1281.322266
249.095764	2063.222656	1274.542725
249.472549	2171.694336	1383.014526
249.849319	2081.301270	1267.763306
250.226044	1972.829468	1355.896606
250.602737	1966.050049	1238.385498
250.979401	1970.569702	1288.101685
251.356033	1911.814209	1310.700073
251.732635	1825.940674	1319.739380
252.109207	1875.656860	1342.337646
252.485748	1724.248413	1337.817993
252.862244	1900.515015	1270.023071
253.238724	1880.176514	1360.416260
253.615158	1807.862061	1247.424805
253.991577	1832.720215	1290.361572
254.367950	1889.215942	1340.077759
254.744308	1929.892822	1423.691406
255.120621	1848.538940	1349.117065
255.496902	1794.303101	1290.361572
255.873154	1728.768066	1328.778687
256.249390	1755.886108	1337.817993
256.625549	1721.988647	1353.636719
257.001709	1844.019287	1450.809326
257.377838	1778.484375	1312.959839
257.753937	1769.445068	1292.621338
258.129974	1771.704834	1312.959839
258.506012	1830.460327	1340.077759
258.881989	1929.892822	1369.455566
259.257935	1988.648315	1328.778687
259.633911	2004.467041	1317.479492
260.009766	2180.733643	1319.739380
260.385651	2375.078857	1416.911865
260.761475	2397.677002	1308.440186
261.137299	2582.982910	1326.518799
261.513062	2573.943604	1240.645386
261.888763	2711.793213	1425.951172
262.264496	2528.747070	1310.700073
262.640137	2454.172852	1297.140991
263.015808	2325.362549	1258.723999
263.391388	2298.244629	1383.014526
263.766998	2228.189941	1392.053833
264.142517	2176.214111	1416.911865
264.518036	2110.678955	1258.723999
264.893524	2020.285889	1369.455566
265.268951	2169.434570	1394.313599
265.644379	2018.026001	1292.621338
266.019745	1975.089355	1231.606079
266.395111	1999.947388	1315.219727
266.770386	2176.214111	1299.400879
267.145691	2036.104736	1233.865845
267.520966	2151.355957	1297.140991
267.896149	2300.504395	1310.700073
268.271362	2210.111328	1283.582031
268.646515	2284.685791	1251.944458
269.021606	2377.338623	1326.518799
269.396729	2286.945557	1317.479492
269.771790	2259.827637	1290.361572
270.146790	2284.685791	1306.180420
270.521790	2377.338623	1450.809326
270.896759	2309.543701	1303.920532
271.271667	2347.960938	1353.636719
271.646545	2318.583252	1281.322266
272.021423	2431.574463	1335.558105
272.396271	2643.998291	1231.606079
272.771027	2666.596680	1294.881226
273.145813	2766.029053	1310.700073
273.520538	2763.769287	1401.093140
273.895233	2829.304199	1283.582031
274.269897	2668.856445	1288.101685
274.644501	2573.943604	1376.234985
275.019135	2549.085449	1337.817993
275.393677	2598.801758	1251.944458
275.768250	2576.203369	1290.361572
276.142700	2488.070313	1258.723999
276.517212	2474.511230	1317.479492
276.891632	2619.140137	1362.676025
277.266022	2693.714600	1265.503418
277.640381	2668.856445	1351.376953
278.014740	2727.611816	1335.558105
278.389038	2668.856445	1380.754639
278.763336	2634.958984	1299.400879
279.137543	2747.950439	1355.896606
279.511780	2682.415283	1272.282959
279.885925	2772.808594	1256.464111
280.260101	2723.092285	1233.865845
280.634186	2700.493896	1301.660645
281.008301	2815.745117	1416.911865
281.382294	2725.352051	1238.385498
281.756348	2901.618652	1337.817993
282.130280	2940.035645	1265.503418
282.504272	3161.498779	1355.896606
282.878143	3231.553467	1288.101685
283.252014	3263.191162	1299.400879
283.625854	3362.623535	1462.108521
283.999664	3369.403076	1242.905151
284.373444	3382.961914	1310.700073
284.747192	3265.450928	1279.062378
285.120941	3421.378906	1380.754639
285.494629	3459.796143	1285.841919
285.868256	3516.291748	1297.140991
286.241882	3545.669434	1274.542725
286.615448	3669.959961	1369.455566
286.988983	3658.660889	1267.763306
287.362518	3825.888184	1407.872559
287.736023	3828.147949	1367.195679
288.109467	3803.289795	1285.841919
288.482880	3929.840332	1371.715332
288.856262	3841.707031	1437.250366
289.229584	3701.597656	1267.763306
289.602936	3735.495117	1279.062378
289.976227	3658.660889	1315.219727
290.349457	3701.597656	1294.881226
290.722687	3846.226563	1301.660645
291.095886	3850.746338	1319.739380
291.469025	3841.707031	1260.983765
291.842133	4060.910156	1337.817993
292.215240	4069.949463	1401.093140
292.588287	4042.831543	1283.582031
292.961304	3891.423096	1265.503418
293.334320	4081.248779	1340.077759
293.707245	4006.674316	1340.077759
294.080170	3959.218018	1335.558105
294.453064	3925.320557	1285.841919
294.825897	3993.115479	1297.140991
295.198730	4196.500000	1283.582031
295.571533	4399.884277	1247.424805
295.944275	4499.316895	1281.322266
296.317017	4607.788574	1444.029785
296.689697	4616.827637	1315.219727
297.062317	4684.622559	1281.322266
297.434967	4881.227539	1367.195679
297.807526	4856.369629	1297.140991
298.180115	5021.336914	1344.597412
298.552612	5037.155762	1288.101685
298.925110	5150.146973	1310.700073
299.297546	4982.919922	1446.289673
299.669983	4951.282227	1358.156372
300.042358	4856.369629	1385.274292
300.414734	4655.245117	1414.652100
300.787048	4427.002441	1290.361572
301.159332	4406.664063	1292.621338
301.531616	4302.711914	1256.464111
301.903809	4420.222656	1319.739380
302.276031	4370.506836	1247.424805
302.648163	4295.932129	1308.440186
303.020294	4332.089355	1270.023071
303.392395	4343.388672	1328.778687
303.764435	4282.373535	1272.282959
304.136444	4117.405762	1310.700073
304.508453	4221.357910	1380.754639
304.880371	4124.185547	1394.313599
305.252319	4121.925781	1263.243652
305.624207	4198.759766	1446.289673
305.996033	4246.216309	1265.503418
306.367859	4210.059082	1186.409546
306.739655	4214.578613	1249.684692
307.111389	4187.460449	1310.700073
307.483124	4149.043457	1256.464111
307.854828	4205.539063	1279.062378
308.226471	4327.569824	1279.062378
308.598083	4356.947754	1251.944458
308.969666	4314.010742	1292.621338
309.341187	4377.286133	1301.660645
309.712738	4549.033203	1285.841919
310.084167	4723.039551	1288.101685
310.455658	4849.589844	1364.935913
310.827057	4845.070313	1371.715332
311.198456	4946.762695	1279.062378
311.569794	4917.384766	1294.881226
311.941132	4845.070313	1222.566772
312.312408	5014.557617	1270.023071
312.683655	4840.550781	1310.700073
313.054840	4946.762695	1247.424805
313.426056	4741.118164	1272.282959
313.797180	4822.472168	1392.053833
314.168304	4698.181641	1369.455566
314.539368	4655.245117	1310.700073
314.910431	4578.410645	1340.077759
315.281433	4768.236328	1333.298340
315.652435	4935.463379	1373.975220
316.023346	4908.345703	1227.086426
316.394287	4811.172852	1272.282959
316.765137	4752.417480	1242.905151
317.135986	4872.188477	1342.337646
317.506775	4621.347656	1204.488159
317.877594	4750.157715	1453.069214
318.248291	4488.017578	1346.857300
318.619019	4539.993652	1344.597412
318.989655	4521.915039	1378.494873
319.360321	4621.347656	1346.857300
319.730896	4693.662109	1319.739380
320.101501	4616.827637	1333.298340
320.472015	4662.024414	1344.597412
320.842529	4675.583496	1292.621338
321.213013	4765.976563	1317.479492
321.583466	4777.275391	1242.905151
321.953827	4698.181641	1249.684692
322.324188	4666.543945	1349.117065
322.694519	4666.543945	1303.920532
323.064819	4786.314941	1337.817993
323.435059	5007.777832	1360.416260
323.805328	5059.753906	1346.857300
324.175507	5217.941895	1340.077759
324.545685	5326.413574	1288.101685
324.915802	5502.680176	1324.259033
325.285919	5570.475098	1301.660645
325.655975	5685.726074	1294.881226
326.025970	5498.160645	1193.188965
326.395966	5584.034180	1333.298340
326.765930	5464.263184	1297.140991
327.135864	5547.876953	1337.817993
327.505737	5407.767578	1340.077759
327.875580	5362.570801	1297.140991
328.245422	5419.066406	1514.084473
328.615204	5342.232422	1351.376953
328.984955	5177.265137	1319.739380
329.354675	5077.832520	1380.754639
329.724365	5113.989746	1297.140991
330.093994	5046.194824	1319.739380
330.463623	4973.880371	1303.920532
330.833191	5251.839355	1303.920532
331.202759	5211.162598	1288.101685
331.572266	5236.020508	1227.086426
331.941711	5258.618652	1315.219727
332.311188	5360.311035	1290.361572
332.680573	5464.263184	1245.165039
333.049988	5407.767578	1346.857300
333.419312	5828.095215	1373.975220
333.788635	5753.520996	1285.841919
334.157867	5787.418457	1333.298340
334.527130	5997.582520	1351.376953
334.896332	6117.353516	1371.715332
335.265503	6108.313965	1335.558105
335.634613	6162.549805	1358.156372
336.003723	6029.220215	1346.857300
336.372772	6081.196289	1360.416260
336.741821	5828.095215	1326.518799
337.110809	5837.134766	1407.872559
337.479797	5866.512695	1340.077759
337.848724	5986.283203	1319.739380
338.217590	6033.739746	1317.479492
338.586487	5819.056152	1270.023071
338.955292	5884.591309	1324.259033
339.324036	5909.449219	1315.219727
339.692841	5963.685059	1315.219727
340.061523	5825.835449	1337.817993
340.430237	5961.425293	1294.881226
340.798859	5945.606445	1444.029785
341.167511	6106.054199	1303.920532
341.536072	5850.693848	1254.204346
341.904663	5986.283203	1312.959839
342.273102	5993.062988	1351.376953
342.641632	6302.659180	1489.226440
343.010040	6033.739746	1247.424805
343.378510	6191.927734	1218.047119
343.746826	6354.635254	1242.905151
344.115204	6309.438477	1310.700073
344.483490	6460.847168	1267.763306
344.851776	6560.279785	1306.180420
345.220001	6874.395508	1358.156372
345.588196	6609.995605	1263.243652
345.956329	6921.852051	1308.440186
346.324524	6901.513672	1249.684692
346.692596	6980.607422	1331.038452
347.060669	7059.701660	1448.549561
347.428680	6817.899902	1362.676025
347.796692	6720.727539	1315.219727
348.164612	6684.570313	1306.180420
348.532562	6587.397461	1371.715332
348.900421	6639.373535	1364.935913
349.268311	6325.257324	1283.582031
349.636108	6465.366699	1328.778687
350.003906	6524.122559	1321.999146
350.371643	6422.430176	1274.542725
350.739380	6677.790527	1432.730713
351.107025	6738.806152	1249.684692
351.474701	6526.382324	1265.503418
351.842285	6817.899902	1285.841919
352.209900	6659.711914	1310.700073
352.577393	6813.380371	1410.132446
352.944946	6628.074219	1335.558105
353.312378	6759.144531	1326.518799
353.679840	6896.993652	1279.062378
354.047211	7224.668945	1274.542725
354.414612	7294.723633	1211.267578
354.781891	7583.981445	1249.684692
355.149231	7482.289063	1274.542725
355.516449	7581.721680	1245.165039
355.883698	8017.868164	1335.558105
356.250854	7895.837891	1312.959839
356.618011	8130.859863	1335.558105
356.985168	8142.158691	1288.101685
357.352234	8442.715820	1340.077759
357.719269	9037.050781	1236.125732
358.086304	9107.105469	1220.306885
358.453278	9351.166992	1281.322266
358.820190	9391.843750	1175.110352
359.187103	9389.583984	1272.282959
359.554016	9504.834961	1254.204346
359.920837	9202.017578	1254.204346
360.287628	9190.718750	1294.881226
360.654388	9251.734375	1270.023071
361.021149	9633.645508	1297.140991
361.387848	9963.580078	1403.352905
361.754486	10585.032227	1326.518799
362.121124	11353.374023	1285.841919
362.487732	11651.670898	1360.416260
362.854279	11728.504883	1335.558105
363.220795	11620.033203	1439.510132
363.587311	11391.791016	1398.833252
363.953735	10917.227539	1301.660645
364.320160	10329.671875	1297.140991
364.686554	9581.668945	1306.180420
365.052887	9174.900391	1301.660645
365.419189	8903.720703	1321.999146
365.785492	8673.218750	1260.983765
366.151703	8607.683594	1308.440186
366.517944	8557.966797	1396.573486
366.884094	8594.124023	1482.446899
367.250214	8562.487305	1288.101685
367.616333	8426.897461	1321.999146
367.982361	8404.298828	1283.582031
368.348419	8230.291992	1290.361572
368.714386	8273.228516	1260.983765
369.080383	8309.385742	1414.652100
369.446289	8218.993164	1441.770020
369.812195	7959.112793	1419.171753
370.178009	8155.717773	1211.267578
370.543854	8092.442871	1254.204346
370.909607	8094.702637	1249.684692
371.275360	8302.606445	1242.905151
371.641052	8492.432617	1389.793945
372.006744	8589.604492	1306.180420
372.372375	8548.927734	1333.298340
372.737976	8634.801758	1283.582031
373.103546	8544.408203	1321.999146
373.469055	8304.866211	1321.999146
373.834595	8551.187500	1389.793945
374.199982	8528.589844	1315.219727
374.565460	8530.849609	1306.180420
374.930817	8548.927734	1204.488159
375.296204	8788.469727	1276.802612
375.661499	8731.973633	1238.385498
376.026825	9075.467773	1351.376953
376.391998	8903.720703	1308.440186
376.757263	9192.978516	1333.298340
377.122406	9825.730469	1279.062378
377.487549	9595.228516	1229.346191
377.852631	10092.389648	1197.708618
378.217743	10350.010742	1342.337646
378.582764	10494.639648	1285.841919
378.947754	10388.427734	1321.999146
379.312714	10200.862305	1315.219727
379.677673	9570.370117	1328.778687
380.042542	9468.677734	1331.038452
380.407379	9310.490234	1333.298340
380.772186	9208.797852	1254.204346
381.136993	9258.513672	1224.826538
381.501740	9192.978516	1285.841919
381.866486	9312.750000	1263.243652
382.231110	8844.964844	1294.881226
382.595764	9179.419922	1213.527466
382.960327	9034.791016	1301.660645
383.324951	8996.374023	1229.346191
383.689453	9362.465820	1267.763306
384.053986	9448.338867	1301.660645
384.418396	9633.645508	1288.101685
384.782867	9769.234375	1328.778687
385.147217	10060.752930	1292.621338
385.511597	9898.044922	1249.684692
385.875885	9889.005859	1258.723999
386.240204	10013.295898	1403.352905
386.604401	10024.595703	1209.007813
386.968628	10058.493164	1380.754639
387.332764	10146.625977	1283.582031
387.696930	10329.671875	1367.195679
388.061005	10494.639648	1455.328979
388.425140	10557.915039	1301.660645
388.789124	10566.954102	1294.881226
389.153168	10465.261719	1319.739380
389.517090	10331.931641	1233.865845
389.881042	10302.553711	1249.684692
390.244873	10325.152344	1299.400879
390.608734	10747.740234	1364.935913
390.972534	10578.252930	1317.479492
391.336304	10743.220703	1288.101685
391.700043	11041.517578	1319.739380
392.063751	11432.467773	1197.708618
392.427399	11427.948242	1222.566772
392.791077	11730.765625	1457.588867
393.154663	11739.804688	1355.896606
393.518219	11608.734375	1251.944458
393.881744	11418.909180	1331.038452
394.245209	11337.554688	1260.983765
394.608704	11344.334961	1279.062378
394.972107	11590.656250	1306.180420
395.335480	11683.308594	1362.676025
395.698792	11549.978516	1324.259033
396.062103	11421.168945	1401.093140
396.425385	11068.635742	1360.416260
396.788635	10969.203125	1335.558105
397.151825	10711.583008	1251.944458
397.514984	10519.497070	1312.959839
397.878113	10363.569336	1398.833252
398.241180	10298.034180	1310.700073
398.604248	10155.665039	1276.802612
398.967285	10304.813477	1274.542725
399.330231	10302.553711	1251.944458
399.693176	10309.333984	1326.518799
400.056091	10216.680664	1301.660645
400.418976	10176.003906	1245.165039
400.781830	10056.232422	1310.700073
401.144592	10257.357422	1222.566772
401.507355	10282.215820	1371.715332
401.870087	10196.341797	1256.464111
402.232758	10246.058594	1308.440186
402.595428	10318.373047	1439.510132
402.958038	10575.993164	1333.298340
403.320618	10718.362305	1301.660645
403.683167	10763.558594	1312.959839
404.045654	11000.840820	1396.573486
404.408142	10885.589844	1285.841919
404.770569	10926.266602	1238.385498
405.132996	11638.112305	1396.573486
405.495331	11601.955078	1288.101685
405.857666	11827.937500	1403.352905
406.219940	11827.937500	1211.267578
406.582214	11723.985352	1265.503418
406.944427	11642.631836	1306.180420
407.306549	11385.011719	1249.684692
407.668732	11412.129883	1333.298340
408.030792	11064.116211	1292.621338
408.392914	11208.745117	1272.282959
408.754883	10991.801758	1324.259033
409.116943	11493.483398	1301.660645
409.478882	11448.287109	1281.322266
409.840820	11495.743164	1360.416260
410.202667	11552.238281	1236.125732
410.564575	11934.149414	1319.739380
410.926331	11850.536133	1272.282959
411.288147	11678.789063	1335.558105
411.649872	11841.497070	1274.542725
412.011566	11751.103516	1233.865845
412.373199	11586.135742	1301.660645
412.734894	11247.162109	1369.455566
413.096436	11192.925781	1303.920532
413.458008	11333.035156	1328.778687
413.819519	11446.027344	1260.983765
414.181030	11439.247070	1218.047119
414.542450	11378.232422	1290.361572
414.903870	11511.561523	1378.494873
415.265198	11653.930664	1362.676025
415.626587	11789.520508	1270.023071
415.987854	11766.922852	1274.542725
416.349152	12051.661133	1279.062378
416.710327	12049.400391	1308.440186
417.071533	11983.866211	1331.038452
417.432678	12765.766602	1281.322266
417.793823	12948.812500	1274.542725
418.154877	13393.998047	1231.606079
418.515930	13735.232422	1202.228271
418.876923	14523.912109	1265.503418
419.237915	14652.722656	1385.274292
419.598816	15002.995117	1340.077759
419.959717	15918.225586	1238.385498
420.320526	16697.867188	1242.905151
420.681396	16982.605469	1303.920532
421.042145	17434.570313	1292.621338
421.402924	18069.582031	1202.228271
421.763580	18521.546875	1301.660645
422.124298	19217.574219	1331.038452
422.484894	19251.470703	1425.951172
422.845520	19118.142578	1299.400879
423.206055	18987.072266	1220.306885
423.566589	18715.892578	1233.865845
423.927063	18783.687500	1321.999146
424.287506	18614.199219	1331.038452
424.647949	18797.246094	1242.905151
425.008301	18792.726563	1229.346191
425.368652	19183.675781	1310.700073
425.728943	18860.521484	1346.857300
426.089203	19312.486328	1260.983765
426.449432	18966.732422	1240.645386
426.809601	18666.175781	1331.038452
427.169739	18415.335938	1215.787231
427.529846	18376.917969	1340.077759
427.889954	17755.464844	1432.730713
428.250000	17373.554688	1231.606079
428.609985	16776.960938	1233.865845
428.969940	16645.890625	1240.645386
429.329865	16460.583984	1385.274292
429.689789	16001.838867	1342.337646
430.049622	15974.721680	1245.165039
430.409454	15812.013672	1290.361572
430.769226	15746.478516	1290.361572
431.128937	15332.930664	1279.062378
431.488678	15615.409180	1360.416260
431.848328	15701.282227	1364.935913
432.207947	15595.070313	1340.077759
432.567566	15425.583008	1349.117065
432.927124	15800.714844	1335.558105
433.286621	16099.011719	1297.140991
433.646118	16487.703125	1315.219727
434.005554	16304.656250	1326.518799
434.364960	16399.568359	1337.817993
434.724335	16501.261719	1249.684692
435.083649	16419.908203	1362.676025
435.442932	16406.347656	1283.582031
435.802216	16415.388672	1414.652100
436.161407	15981.500977	1371.715332
436.520630	16080.933594	1308.440186
436.879761	16358.892578	1256.464111
437.238831	16433.466797	1335.558105
437.597931	16767.919922	1326.518799
437.956940	16259.459961	1290.361572
438.315948	16720.464844	1303.920532
438.674896	16865.093750	1373.975220
439.033844	16474.142578	1288.101685
439.392700	16478.662109	1362.676025
439.751556	16982.605469	1274.542725
440.110352	17814.220703	1263.243652
440.469116	17936.251953	1299.400879
440.827850	18180.312500	1283.582031
441.186554	18876.339844	1294.881226
441.545197	18989.332031	1285.841919
441.903809	19231.132813	1383.014526
442.262390	18993.851563	1274.542725
442.620941	18883.119141	1290.361572
442.979462	18591.601563	1256.464111
443.337921	18345.281250	1333.298340
443.696350	18214.210938	1362.676025
444.054718	18220.990234	1267.763306
444.413086	18137.376953	1410.132446
444.771423	18801.765625	1376.234985
445.129669	17938.511719	1376.234985
445.487915	17269.603516	1254.204346
445.846130	17800.662109	1294.881226
446.204285	17891.054688	1281.322266
446.562408	18661.656250	1383.014526
446.920532	19344.125000	1285.841919
447.278595	20300.031250	1364.935913
447.636566	20288.732422	1349.117065
447.994568	20919.224609	1342.337646
448.352509	21016.396484	1299.400879
448.710419	20889.845703	1218.047119
449.068237	20792.673828	1290.361572
449.426056	20505.675781	1312.959839
449.783844	20390.423828	1272.282959
450.141602	19906.822266	1331.038452
450.499329	19782.531250	1276.802612
450.856964	18923.796875	1263.243652
451.214630	18971.251953	1346.857300
451.572235	18605.160156	1240.645386
451.929779	18460.531250	1229.346191
452.287323	18327.201172	1306.180420
452.644806	18458.271484	1263.243652
453.002258	18546.404297	1410.132446
453.359650	18311.382813	1364.935913
453.717010	18191.611328	1414.652100
454.074341	17952.070313	1297.140991
454.431641	17615.355469	1306.180420
454.788910	17289.941406	1283.582031
455.146118	17265.082031	1378.494873
455.503296	16946.447266	1308.440186
455.860443	17161.130859	1274.542725
456.217560	17059.439453	1319.739380
456.574615	16842.496094	1364.935913
456.931641	17050.398438	1473.407593
457.288635	16930.628906	1326.518799
457.645599	16991.644531	1308.440186
458.002502	17195.027344	1321.999146
458.359375	17362.255859	1288.101685
458.716217	17938.511719	1260.983765
459.073029	18670.695313	1285.841919
459.429779	20250.314453	1315.219727
459.786499	20636.746094	1283.582031
460.143219	22417.490234	1292.621338
460.499847	22295.458984	1258.723999
460.856476	23228.767578	1297.140991
461.213043	23203.910156	1254.204346
461.569550	22514.662109	1233.865845
461.926056	22340.656250	1362.676025
462.282501	21409.607422	1344.597412
462.638916	20869.507813	1319.739380
462.995331	20184.779297	1276.802612
463.351654	19911.341797	1292.621338
463.707947	19204.015625	1281.322266
464.064209	19023.228516	1312.959839
464.420441	18736.230469	1267.763306
464.776642	18279.746094	1276.802612
465.132782	18480.871094	1349.117065
465.488892	18363.359375	1315.219727
465.844971	18632.279297	1367.195679
466.201019	18634.539063	1333.298340
466.557007	18584.822266	1260.983765
466.912964	19179.156250	1315.219727
467.268890	19100.062500	1306.180420
467.624756	19576.886719	1279.062378
467.980591	19628.863281	1410.132446
468.336426	19619.824219	1290.361572
468.692169	19427.738281	1256.464111
469.047913	18968.992188	1283.582031
469.403625	18661.656250	1267.763306
469.759247	18444.712891	1211.267578
470.114838	18074.101563	1294.881226
470.470459	18392.736328	1297.140991
470.825958	18388.216797	1254.204346
471.181488	18173.533203	1364.935913
471.536926	18259.406250	1288.101685
471.892365	18164.494141	1349.117065
472.247742	18266.187500	1360.416260
472.603058	18584.822266	1310.700073
472.958374	18747.529297	1340.077759
473.313629	19097.802734	1364.935913
473.668884	19181.416016	1398.833252
474.024048	19429.998047	1283.582031
474.379211	19237.912109	1276.802612
474.734314	19420.958984	1303.920532
475.089417	19170.117188	1285.841919
475.444458	19301.187500	1308.440186
475.799438	19161.078125	1267.763306
476.154388	19156.558594	1274.542725
476.509308	19992.695313	1267.763306
476.864197	19985.916016	1315.219727
477.219025	20440.140625	1288.101685
477.573822	20898.886719	1285.841919
477.928619	21328.253906	1276.802612
478.283325	21500.000000	1279.062378
478.638000	21890.949219	1360.416260
478.992676	22340.656250	1186.409546
479.347260	22464.947266	1500.525513
479.701843	22611.835938	1263.243652
480.056366	22831.039063	1292.621338
480.410858	23502.207031	1310.700073
480.765320	24261.509766	1333.298340
481.119751	24659.238281	1260.983765
481.474091	25714.578125	1251.944458
481.828430	26957.484375	1242.905151
482.182709	28835.400391	1281.322266
482.536987	30948.339844	1312.959839
482.891174	33773.125000	1324.259033
483.245361	38064.535156	1213.527466
483.599518	43569.476563	1274.542725
483.953644	49169.328125	1220.306885
484.307678	52491.277344	1294.881226
484.661713	54581.617188	1337.817993
485.015686	55395.156250	1285.841919
485.369659	55081.039063	1294.881226
485.723572	52983.917969	1301.660645
486.077423	50186.250000	1276.802612
486.431274	47763.714844	1209.007813
486.785034	46301.609375	1315.219727
487.138794	46039.468750	1292.621338
487.492523	46536.628906	1351.376953
487.846191	47350.167969	1297.140991
488.199829	47899.304688	1306.180420
488.553436	47838.289063	1337.817993
488.906982	47117.406250	1292.621338
489.260529	45698.234375	1319.739380
489.613983	44161.550781	1303.920532
489.967438	42073.468750	1355.896606
490.320831	40561.644531	1367.195679
490.674194	39635.117188	1331.038452
491.027527	40084.820313	1274.542725
491.380798	40624.921875	1215.787231
491.734070	42455.382813	1294.881226
492.087250	43018.078125	1247.424805
492.440430	43273.437500	1240.645386
492.793549	42362.726563	1324.259033
493.146637	41440.718750	1353.636719
493.499695	39562.800781	1245.165039
493.852692	36606.949219	1396.573486
494.205658	33892.894531	1288.101685
494.558594	32220.623047	1274.542725
494.911499	30426.318359	1258.723999
495.264374	29646.677734	1317.479492
495.617188	28387.955078	1358.156372
495.969940	27829.777344	1267.763306
496.322693	27644.470703	1351.376953
496.675385	28284.001953	1256.464111
497.028015	27847.855469	1333.298340
497.380676	27687.408203	1285.841919
497.733246	28204.908203	1265.503418
498.085785	28564.220703	1911.814209
498.438263	28067.058594	1410.132446
498.790710	27841.076172	1274.542725
499.143158	27382.332031	1283.582031
499.495544	27167.648438	1267.763306
499.847870	26632.068359	1258.723999
500.200165	26186.882813	1285.841919
500.552429	25680.681641	1319.739380
500.904663	25183.519531	1312.959839
501.256866	24928.158203	1430.470825
501.609009	24247.951172	1419.171753
501.961090	24410.658203	1337.817993
502.313171	24195.974609	1260.983765
502.665253	24071.683594	1272.282959
503.017181	23981.291016	1326.518799
503.369110	23658.134766	1285.841919
503.721069	23979.031250	1373.975220
504.072937	23814.062500	1331.038452
504.424774	24037.787109	1346.857300
504.776520	23793.724609	1206.747925
505.128265	23888.638672	1242.905151
505.480042	24247.951172	1324.259033
505.831665	23852.480469	1333.298340
506.183289	23967.732422	1240.645386
506.534882	23825.363281	1303.920532
506.886505	23554.183594	1317.479492
507.237946	23450.230469	1283.582031
507.589417	23820.843750	1233.865845
507.940857	23956.431641	1279.062378
508.292297	24062.644531	1272.282959
508.643616	24234.390625	1224.826538
508.994904	24580.144531	1204.488159
509.346191	24471.673828	1351.376953
509.697479	24555.287109	1229.346191
510.048645	24788.048828	1321.999146
510.399780	25043.410156	1387.534180
510.750916	25529.273438	1238.385498
511.102051	25653.562500	1229.346191
511.453033	25771.074219	1303.920532
511.804016	25931.521484	1242.905151
512.154968	25809.490234	1317.479492
512.505920	26378.966797	1276.802612
512.856750	26166.542969	1279.062378
513.207581	25809.490234	1331.038452
513.558411	26243.378906	1254.204346
513.909180	26225.298828	1306.180420
514.259888	25834.349609	1274.542725
514.610535	25890.845703	1317.479492
514.961182	25551.871094	1236.125732
515.311829	25133.802734	1385.274292
515.662354	25592.546875	1326.518799
516.012878	25441.138672	1317.479492
516.363281	25502.154297	1245.165039
516.713745	25906.664063	1294.881226
517.064209	26347.330078	1315.219727
517.414490	26794.775391	1285.841919
517.764832	27504.361328	1310.700073
518.115173	27807.179688	1258.723999
518.465393	29106.580078	1254.204346
518.815552	30200.335938	1267.763306
519.165710	30688.458984	1342.337646
519.515869	30638.742188	1251.944458
519.865967	30738.175781	1292.621338
520.216003	30044.408203	1290.361572
520.565918	29793.566406	1331.038452
520.915955	29237.650391	1328.778687
521.265869	28528.064453	1297.140991
521.615723	28073.837891	1315.219727
521.965576	28150.671875	1410.132446
522.315369	27954.068359	1272.282959
522.665161	27626.392578	1292.621338
523.014832	27635.431641	1301.660645
523.364502	27262.560547	1290.361572
523.714172	27633.171875	1297.140991
524.063782	28076.097656	1353.636719
524.413330	28747.267578	1267.763306
524.762817	29655.718750	1270.023071
525.112366	30189.037109	1355.896606
525.461792	31533.634766	1256.464111
525.811157	32887.269531	1340.077759
526.160522	33904.195313	1353.636719
526.509827	35594.542969	1369.455566
526.859131	36756.097656	1172.850586
527.208313	38102.953125	1242.905151
527.557495	40130.019531	1242.905151
527.906738	42807.914063	1224.826538
528.255859	45930.996094	1254.204346
528.604919	50048.402344	1260.983765
528.953918	52172.640625	1265.503418
529.302917	53277.695313	1263.243652
529.651917	54253.941406	1392.053833
530.000793	53765.820313	1263.243652
530.349609	51858.523438	1285.841919
530.698547	49146.730469	1281.322266
531.047302	45723.093750	1326.518799
531.396057	43454.226563	1292.621338
531.744751	40857.683594	1303.920532
532.093445	40071.261719	1238.385498
532.442139	39386.535156	1387.534180
532.790710	39671.273438	1321.999146
533.139160	40667.859375	1256.464111
533.487732	41348.066406	1315.219727
533.836243	41824.890625	1333.298340
534.184631	42572.890625	1245.165039
534.533020	41429.417969	1337.817993
534.881348	40749.210938	1337.817993
535.229736	39095.019531	1346.857300
535.577942	37551.554688	1358.156372
535.926086	36518.812500	1371.715332
536.274353	36227.296875	1245.165039
536.622498	36225.035156	1337.817993
536.970642	35788.890625	1265.503418
537.318665	35440.875000	1258.723999
537.666687	34672.535156	1308.440186
538.014709	34281.585938	1279.062378
538.362610	33427.371094	1281.322266
538.710510	32575.416016	1213.527466
539.058411	31445.501953	1267.763306
539.406250	31199.179688	1308.440186
539.753967	31289.572266	1344.597412
540.101746	31877.128906	1360.416260
540.449463	33063.539063	1279.062378
540.797119	35065.746094	1344.597412
541.144714	37339.132813	1317.479492
541.492249	40209.113281	1303.920532
541.839844	40952.597656	1310.700073
542.187378	42489.277344	1324.259033
542.534790	42279.113281	1272.282959
542.882202	42579.671875	1340.077759
543.229553	40954.855469	1251.944458
543.576965	39196.710938	1319.739380
543.924194	37580.933594	1231.606079
544.271423	35748.214844	1215.787231
544.618652	34552.765625	1245.165039
544.965881	33176.527344	1258.723999
545.312988	31843.230469	1263.243652
545.660034	30880.544922	1360.416260
546.007141	30265.871094	1353.636719
546.354126	29429.734375	1256.464111
546.701111	29558.544922	1197.708618
547.048035	29355.160156	1301.660645
547.394836	29002.626953	1331.038452
547.741699	28589.080078	1242.905151
548.088562	27922.429688	1263.243652
548.435303	27698.707031	1315.219727
548.781921	26006.095703	1281.322266
549.128662	25563.169922	1285.841919
549.475342	24851.324219	1369.455566
549.821899	23518.025391	1283.582031
550.168457	23563.222656	1337.817993
550.515015	22822.000000	1385.274292
550.861511	22322.578125	1209.007813
551.207886	21915.808594	1238.385498
551.554260	21780.218750	1344.597412
551.900635	21434.464844	1349.117065
552.247009	21561.015625	1254.204346
552.593262	21536.156250	1321.999146
552.939392	21988.123047	1301.660645
553.285645	22257.042969	1279.062378
553.631775	22035.578125	1319.739380
553.977905	21863.832031	1249.684692
554.323975	21590.392578	1258.723999
554.669983	21520.337891	1324.259033
555.015991	20901.146484	1256.464111
555.361877	20688.722656	1297.140991
555.707825	20758.777344	1279.062378
556.053711	20451.439453	1247.424805
556.399536	20166.701172	1233.865845
556.745239	19658.240234	1285.841919
557.091003	19678.578125	1233.865845
557.436707	19893.261719	1306.180420
557.782410	19387.060547	1274.542725
558.127991	19608.523438	1218.047119
558.473511	19411.919922	1297.140991
558.819092	19127.181641	1224.826538
559.164612	19118.142578	1256.464111
559.510010	18837.923828	1247.424805
559.855408	18883.119141	1292.621338
560.200806	18718.152344	1294.881226
560.546143	19102.322266	1267.763306
560.891357	18903.457031	1346.857300
561.236633	19086.503906	1238.385498
561.581848	18973.511719	1308.440186
561.927002	19215.314453	1288.101685
562.272095	19154.298828	1290.361572
562.617126	19030.007813	1254.204346
562.962219	19136.220703	1319.739380
563.307251	18695.554688	1276.802612
563.652161	19072.945313	1249.684692
563.997009	19023.228516	1290.361572
564.341919	18930.576172	1272.282959
564.686768	19133.960938	1274.542725
565.031555	19188.195313	1290.361572
565.376282	19755.412109	1376.234985
565.721008	19913.601563	1283.582031
566.065674	20207.378906	1240.645386
566.410278	20498.896484	1254.204346
566.754822	20887.585938	1288.101685
567.099365	20817.531250	1267.763306
567.443909	20602.847656	1224.826538
567.788330	20713.580078	1321.999146
568.132751	20458.218750	1328.778687
568.477112	20336.189453	1321.999146
568.821533	20044.671875	1326.518799
569.165771	19911.341797	1319.739380
569.510010	19796.089844	1281.322266
569.854248	19547.509766	1290.361572
570.198364	19802.869141	1342.337646
570.542542	19854.845703	1251.944458
570.886536	19791.570313	1267.763306
571.230591	20211.898438	1224.826538
571.574646	20164.441406	1251.944458
571.918518	20568.951172	1281.322266
572.262451	20824.310547	1265.503418
572.606323	21009.617188	1301.660645
572.950195	20980.240234	1272.282959
573.293945	21109.048828	1297.140991
573.637695	20767.816406	1276.802612
573.981384	20684.203125	1274.542725
574.325134	20510.195313	1383.014526
574.668701	20263.875000	1283.582031
575.012268	20480.818359	1265.503418
575.355774	20365.566406	1247.424805
575.699341	20164.441406	1256.464111
576.042725	20593.808594	1394.313599
576.386169	19762.193359	1279.062378
576.729553	19545.250000	1283.582031
577.072876	19567.847656	1441.770020
577.416138	18921.537109	1260.983765
577.759399	18648.097656	1340.077759
578.102600	18139.636719	1256.464111
578.445801	17841.339844	1256.464111
578.788940	17448.128906	1265.503418
579.131897	17619.875000	1251.944458
579.474976	17034.580078	1367.195679
579.817993	16731.763672	1355.896606
580.160950	16471.882813	1301.660645
580.503845	16311.435547	1346.857300
580.846680	16232.341797	1245.165039
581.189514	15848.170898	1285.841919
581.532349	15823.312500	1220.306885
581.875061	16022.177734	1288.101685
582.217773	15843.651367	1240.645386
582.560425	15687.723633	1405.612793
582.903076	15721.621094	1306.180420
583.245667	15531.794922	1344.597412
583.588135	15506.937500	1297.140991
583.930664	15608.628906	1331.038452
584.273071	15412.024414	1310.700073
584.615479	15317.111328	1346.857300
584.957825	15097.908203	1260.983765
585.300232	15299.033203	1249.684692
585.642517	14682.099609	1247.424805
585.984680	15018.814453	1299.400879
586.326843	14885.484375	1319.739380
586.669067	14982.657227	1331.038452
587.011230	14890.003906	1344.597412
587.353271	15086.609375	1281.322266
587.695251	14747.634766	1321.999146
588.037231	14876.445313	1242.905151
588.379211	14910.342773	1281.322266
588.721069	15172.482422	1297.140991
589.062927	15179.261719	1279.062378
589.404785	15443.662109	1326.518799
589.746582	15319.371094	1317.479492
590.088257	15299.033203	1349.117065
590.429932	15468.519531	1344.597412
590.771606	15375.867188	1274.542725
591.113220	15504.677734	1331.038452
591.454773	15425.583008	1439.510132
591.796265	15118.247070	1254.204346
592.137817	15387.166016	1340.077759
592.479248	14831.249023	1274.542725
592.820618	14591.707031	1251.944458
593.161926	15066.270508	1276.802612
593.503296	14962.318359	1317.479492
593.844604	14901.303711	1292.621338
594.185791	15208.639648	1317.479492
594.526917	15407.504883	1306.180420
594.868103	15210.899414	1342.337646
595.209229	15192.821289	1310.700073
595.550232	15495.637695	1355.896606
595.891235	15836.872070	1274.542725
596.232178	16042.516602	1355.896606
596.573181	16293.357422	1328.778687
596.914063	16557.757813	1294.881226
597.254883	16749.841797	1229.346191
597.595703	16749.841797	1326.518799
597.936462	17174.689453	1285.841919
598.277161	17072.998047	1229.346191
598.617798	16361.152344	1215.787231
598.958435	16033.476563	1306.180420
599.299072	15721.621094	1245.165039
599.639587	15371.347656	1342.337646
599.980103	14831.249023	1387.534180
600.320557	14849.327148	1389.793945
600.661072	14320.527344	1321.999146
601.001404	14277.590820	1321.999146
601.341675	14094.544922	1405.612793
601.681946	14196.237305	1321.999146
602.022278	14019.970703	1335.558105
602.362427	14178.158203	1224.826538
602.702576	14546.510742	1288.101685
603.042725	14614.305664	1303.920532
603.382813	15158.923828	1364.935913
603.722839	15240.277344	1337.817993
604.062805	15529.535156	1265.503418
604.402771	16241.380859	1484.706787
604.742737	16467.363281	1337.817993
605.082581	16634.591797	1265.503418
605.422363	16826.675781	1283.582031
605.762146	17102.375000	1283.582031
606.101929	16697.867188	1297.140991
606.441589	16413.128906	1297.140991
606.781189	16008.619141	1263.243652
607.120850	15782.635742	1245.165039
607.460388	15513.716797	1251.944458
607.799927	14951.019531	1335.558105
608.139404	14510.353516	1346.857300
608.478821	14490.014648	1303.920532
608.818298	14923.901367	1272.282959
609.157593	14697.918945	1288.101685
609.496887	14718.256836	1410.132446
609.836182	14987.176758	1333.298340
610.175415	15416.543945	1294.881226
610.514526	15441.402344	1281.322266
610.853699	15299.033203	1310.700073
611.192688	15052.711914	1251.944458
611.531799	14928.420898	1310.700073
611.870850	14598.486328	1385.274292
612.209778	14218.834961	1369.455566
612.548645	13780.428711	1229.346191
612.887573	13488.911133	1360.416260
613.226440	13346.541992	1321.999146
613.565186	13299.085938	1364.935913
613.903931	13000.788086	1270.023071
614.242676	12734.128906	1249.684692
614.581360	12668.593750	1331.038452
614.919983	12555.602539	1344.597412
615.258484	12596.279297	1367.195679
615.597046	12566.901367	1274.542725
615.935547	12478.768555	1249.684692
616.273987	12499.106445	1274.542725
616.612366	12469.728516	1405.612793
616.950806	12501.366211	1312.959839
617.289124	12435.831055	1344.597412
617.627380	12248.265625	1292.621338
617.965515	12530.744141	1380.754639
618.303772	12422.272461	1274.542725
618.641968	12322.839844	1272.282959
618.980042	12318.320313	1364.935913
619.318054	12404.193359	1333.298340
619.656128	12293.461914	1317.479492
619.994080	12151.092773	1242.905151
620.331970	12435.831055	1236.125732
620.669861	12164.652344	1310.700073
621.007751	12142.053711	1227.086426
621.345581	12184.990234	1337.817993
621.683289	11972.566406	1317.479492
622.020996	12022.283203	1258.723999
622.358704	11990.645508	1315.219727
622.696350	11983.866211	1299.400879
623.033875	11949.968750	1342.337646
623.371460	11997.424805	1279.062378
623.708984	11794.040039	1358.156372
624.046448	11995.165039	1324.259033
624.383789	11766.922852	1274.542725
624.721191	11744.324219	1340.077759
625.058533	11888.953125	1315.219727
625.395813	11662.970703	1310.700073
625.733032	12252.785156	1267.763306
626.070190	12221.147461	1355.896606
626.407410	12279.903320	1457.588867
626.744507	12575.940430	1319.739380
627.081543	12677.632813	1265.503418
627.418518	12810.962891	1258.723999
627.755554	12772.545898	1294.881226
628.092529	12917.174805	1335.558105
628.429382	12505.885742	1335.558105
628.766174	12627.916992	1317.479492
629.103027	12420.012695	1306.180420
629.439819	12397.414063	1308.440186
629.776489	12060.700195	1319.739380
630.113159	11981.606445	1319.739380
630.449829	11660.710938	1310.700073
630.786377	11814.378906	1279.062378
631.122925	11787.260742	1430.470825
631.459412	11681.048828	1371.715332
631.795898	11543.199219	1297.140991
632.132324	11111.572266	1294.881226
632.468689	11247.162109	1355.896606
632.804993	11100.273438	1265.503418
633.141296	11170.328125	1274.542725
633.477539	11030.218750	1333.298340
633.813721	11077.674805	1279.062378
634.149841	11134.170898	1337.817993
634.485962	10926.266602	1326.518799
634.822083	10829.093750	1297.140991
635.158020	11039.257813	1401.093140
635.494019	10921.747070	1281.322266
635.829956	10872.030273	1315.219727
636.165894	10580.512695	1378.494873
636.501709	10811.015625	1342.337646
636.837463	10467.521484	1258.723999
637.173279	10293.514648	1335.558105
637.509033	10334.191406	1344.597412
637.844666	10200.862305	1272.282959
638.180237	10067.532227	1407.872559
638.515869	10015.555664	1251.944458
638.851440	10049.453125	1256.464111
639.186890	9979.398438	1285.841919
639.522339	9733.077148	1342.337646
639.857727	9776.014648	1290.361572
640.193176	9701.440430	1360.416260
640.528442	9459.638672	1367.195679
640.863708	9455.119141	1202.228271
641.198914	9439.299805	1249.684692
641.534180	9220.096680	1301.660645
641.869263	9391.843750	1288.101685
642.204346	9290.151367	1220.306885
642.539368	9174.900391	1306.180420
642.874390	9134.223633	1312.959839
643.209412	9125.183594	1299.400879
643.544312	9294.670898	1319.739380
643.879150	9131.963867	1317.479492
644.213989	9107.105469	1401.093140
644.548828	8996.374023	1285.841919
644.883545	8892.421875	1279.062378
645.218262	8702.595703	1335.558105
645.552856	8813.328125	1290.361572
645.887573	8971.515625	1416.911865
646.222107	8962.476563	1297.140991
646.556580	8761.351563	1288.101685
646.891113	8806.547852	1245.165039
647.225586	8978.294922	1204.488159
647.559937	8903.720703	1231.606079
647.894226	9032.531250	1319.739380
648.228577	8921.799805	1394.313599
648.562927	9089.026367	1337.817993
648.897095	8917.279297	1369.455566
649.231262	8854.004883	1283.582031
649.565430	8937.618164	1337.817993
649.899475	8969.255859	1247.424805
650.233521	8966.996094	1407.872559
650.567505	8774.910156	1292.621338
650.901428	8772.650391	1331.038452
651.235413	8698.076172	1315.219727
651.569275	8779.430664	1267.763306
651.903015	8982.814453	1344.597412
652.236816	8630.281250	1303.920532
652.570618	8840.445313	1326.518799
652.904297	8892.421875	1367.195679
653.237915	8614.462891	1285.841919
653.571533	8598.644531	1364.935913
653.905090	8578.305664	1319.739380
654.238586	8585.084961	1331.038452
654.572021	8537.628906	1285.841919
654.905457	8544.408203	1272.282959
655.238892	8422.377930	1340.077759
655.572144	8420.118164	1258.723999
655.905457	8298.086914	1288.101685
656.238708	8524.069336	1326.518799
656.571960	8295.827148	1229.346191
656.905090	8298.086914	1308.440186
657.238159	8327.464844	1285.841919
657.571289	8325.205078	1351.376953
657.904358	8255.150391	1292.621338
658.237305	8456.275391	1299.400879
658.570190	8759.091797	1346.857300
658.903076	8788.469727	1270.023071
659.236023	9192.978516	1380.754639
659.568787	9037.050781	1297.140991
659.901428	9353.426758	1258.723999
660.234192	9360.206055	1310.700073
660.566895	9409.921875	1294.881226
660.899536	9256.253906	1376.234985
661.232056	9197.498047	1227.086426
661.564636	9118.404297	1290.361572
661.897156	8976.035156	1340.077759
662.229553	8842.705078	1315.219727
662.561951	8576.045898	1324.259033
662.894287	8657.399414	1364.935913
663.226685	8146.678711	1265.503418
663.558899	8266.449219	1317.479492
663.891052	8110.521484	1288.101685
664.223328	7945.553711	1297.140991
664.555420	7864.200195	1288.101685
664.887512	7658.555664	1263.243652
665.219543	7674.374512	1319.739380
665.551575	7875.499023	1373.975220
665.883545	7735.390137	1335.558105
666.215454	7678.894043	1328.778687
666.547302	7604.319824	1263.243652
666.879150	7595.280762	1444.029785
667.210938	7782.846191	1362.676025
667.542664	7762.507813	1335.558105
667.874268	7629.178223	1274.542725
668.205994	7568.162598	1272.282959
668.537537	7588.500977	1333.298340
668.869080	7529.745605	1333.298340
669.200562	7527.485840	1290.361572
669.532043	7588.500977	1220.306885
669.863525	7518.446289	1346.857300
670.194824	7419.014160	1263.243652
670.526184	7579.461914	1299.400879
670.857483	7480.029297	1260.983765
671.188660	7480.029297	1281.322266
671.519897	7353.479004	1279.062378
671.851013	7355.738770	1288.101685
672.182129	7407.714844	1281.322266
672.513184	7267.605469	1231.606079
672.844238	7287.943848	1403.352905
673.175171	7274.385254	1310.700073
673.506104	7190.771484	1333.298340
673.836975	7265.345703	1288.101685
674.167786	7093.599121	1303.920532
674.498596	7177.212402	1236.125732
674.829407	7039.362793	1272.282959
675.160034	7326.361328	1376.234985
675.490723	7220.149414	1315.219727
675.821289	7111.677734	1303.920532
676.151917	7041.623047	1326.518799
676.482422	7039.362793	1353.636719
676.812927	6991.906738	1233.865845
677.143311	6915.072266	1326.518799
677.473694	7104.897949	1335.558105
677.804016	6908.292969	1267.763306
678.134338	6883.435059	1260.983765
678.464539	6969.308594	1281.322266
678.794800	6887.954590	1308.440186
679.124878	7034.843262	1315.219727
679.455078	6976.087891	1270.023071
679.785095	7118.457031	1299.400879
680.115173	7215.629395	1218.047119
680.445129	7281.164551	1270.023071
680.775024	7441.612305	1306.180420
681.104919	7606.579590	1288.101685
681.434814	7593.020996	1222.566772
681.764526	7274.385254	1258.723999
682.094360	7581.721680	1242.905151
682.424011	7696.972656	1441.770020
682.753723	7328.621094	1369.455566
683.083313	7394.155762	1337.817993
683.412903	7202.070801	1306.180420
683.742432	7274.385254	1236.125732
684.071899	7174.952637	1355.896606
684.401306	7116.197266	1448.549561
684.730713	6811.120605	1290.361572
685.060059	7023.544434	1371.715332
685.389404	6711.687988	1247.424805
685.718628	6887.954590	1299.400879
686.047852	6530.901855	1301.660645
686.376953	6906.033203	1383.014526
686.706116	6668.751465	1351.376953
687.035156	6639.373535	1263.243652
687.364197	6621.294922	1251.944458
687.693176	6693.609375	1281.322266
688.022156	6700.388672	1392.053833
688.351013	6582.877930	1258.723999
688.679871	6609.995605	1260.983765
689.008606	6788.521973	1346.857300
689.337402	6643.893066	1299.400879
689.666138	6580.618164	1328.778687
689.994751	6429.209473	1288.101685
690.323364	6548.980469	1337.817993
690.651917	6431.469238	1251.944458
690.980469	6497.004395	1392.053833
691.308960	6191.927734	1346.857300
691.637451	6329.777344	1240.645386
691.965759	6042.778809	1274.542725
692.294128	5972.724609	1288.101685
692.622437	6006.621582	1245.165039
692.950684	6076.676270	1351.376953
693.278870	5841.654297	1319.739380
693.607117	5773.859375	1263.243652
693.935120	5938.827148	1267.763306
694.263245	5866.512695	1344.597412
694.591248	5954.645996	1319.739380
694.919250	5717.363770	1344.597412
695.247192	5588.553711	1245.165039
695.575073	5791.937988	1367.195679
695.902893	5730.922852	1353.636719
696.230774	5586.293945	1274.542725
696.558411	5823.575684	1407.872559
696.886169	5742.222168	1276.802612
697.213806	5717.363770	1369.455566
697.541443	5726.403320	1360.416260
697.869019	6056.337891	1301.660645
698.196533	6219.045410	1211.267578
698.524048	6445.028320	1306.180420
698.851501	6657.452148	1362.676025
699.178772	6537.681152	1328.778687
699.506226	6720.727539	1362.676025
699.833435	7091.338867	1376.234985
700.160767	7005.465820	1312.959839
700.487915	6756.884766	1229.346191
700.815063	6788.521973	1161.551392
701.142151	6465.366699	1206.747925
701.469238	6415.650391	1342.337646
701.796265	6246.163574	1301.660645
702.123230	6139.951660	1308.440186
702.450134	5990.803223	1342.337646
702.777039	5909.449219	1342.337646
703.103882	5803.237305	1331.038452
703.430664	5581.774414	1281.322266
703.757385	5414.546875	1306.180420
704.084106	5455.223633	1247.424805
704.410767	5373.870117	1267.763306
704.737366	5306.075195	1249.684692
705.063904	5333.193359	1432.730713
705.390442	5315.114746	1310.700073
705.716919	5204.382813	1254.204346
706.043396	5281.217285	1319.739380
706.369690	5091.391602	1317.479492
706.696106	5208.902832	1385.274292
707.022278	5039.415527	1310.700073
707.348633	5080.092285	1312.959839
707.674805	5127.548828	1276.802612
708.000916	4991.958984	1392.053833
708.327026	5059.753906	1306.180420
708.653076	5012.297852	1274.542725
708.979065	5034.895996	1202.228271
709.305054	5082.352539	1276.802612
709.630920	5129.808594	1306.180420
709.956787	5104.950684	1197.708618
710.282593	5014.557617	1335.558105
710.608459	5202.123047	1337.817993
710.934082	5247.319824	1288.101685
711.259827	5335.453125	1279.062378
711.585449	5419.066406	1270.023071
711.911072	5556.916016	1335.558105
712.236572	5430.365723	1297.140991
712.562073	5527.538574	1290.361572
712.887512	5432.625488	1279.062378
713.213013	5353.531738	1342.337646
713.538330	5351.271973	1285.841919
713.863647	5333.193359	1283.582031
714.188904	5272.177734	1249.684692
714.514099	5339.972656	1288.101685
714.839294	5161.446289	1303.920532
715.164490	5116.249512	1401.093140
715.489502	5299.295898	1380.754639
715.814575	5098.170898	1256.464111
716.139526	5238.280273	1369.455566
716.464539	4978.400391	1360.416260
716.789368	4876.708008	1344.597412
717.114258	4939.983398	1283.582031
717.439026	4996.479004	1308.440186
717.763794	4937.723145	1272.282959
718.088440	4894.786621	1258.723999
718.413208	4878.967773	1267.763306
718.737793	4824.731934	1290.361572
719.062378	4784.055176	1360.416260
719.386841	4716.260254	1301.660645
719.711304	4652.984863	1292.621338
720.035767	4533.214355	1276.802612
720.360168	4632.646484	1351.376953
720.684570	4463.159668	1263.243652
721.008789	4614.567871	1383.014526
721.333069	4488.017578	1317.479492
721.657227	4417.962891	1242.905151
721.981445	4284.633301	1251.944458
722.305481	4472.198730	1236.125732
722.629578	4325.310059	1254.204346
722.953552	4402.144043	1240.645386
723.277588	4295.932129	1326.518799
723.601440	4173.901367	1256.464111
723.925354	4239.436523	1213.527466
724.249146	4402.144043	1292.621338
724.572937	4268.814453	1337.817993
724.896667	4361.467285	1290.361572
725.220398	4334.349121	1184.149658
725.543945	4203.279297	1281.322266
725.867615	4293.672363	1215.787231
726.191101	4262.034668	1240.645386
726.514648	4433.781738	1371.715332
726.838074	4298.191895	1353.636719
727.161499	4361.467285	1222.566772
727.484863	4503.836426	1301.660645
727.808228	4433.781738	1394.313599
728.131470	4341.128906	1303.920532
728.454712	4469.938965	1371.715332
728.777832	4429.262207	1335.558105
729.101013	4427.002441	1369.455566
729.424011	4465.419434	1367.195679
729.747070	4490.277344	1373.975220
730.070068	4343.388672	1405.612793
730.393005	4384.065430	1369.455566
730.715881	4449.600586	1258.723999
731.038757	4569.371582	1265.503418
731.361572	4465.419434	1294.881226
731.684326	4393.104980	1308.440186
732.007019	4415.703125	1333.298340
732.329712	4393.104980	1324.259033
732.652283	4573.891113	1349.117065
732.974854	4560.332031	1276.802612
733.297363	4524.174805	1351.376953
733.619873	4506.096191	1303.920532
733.942261	4454.120117	1292.621338
734.264648	4598.749023	1299.400879
734.586975	4436.041504	1281.322266
734.909302	4314.010742	1272.282959
735.231506	4404.403809	1285.841919
735.553711	4282.373535	1290.361572
735.875854	4316.270508	1401.093140
736.197937	4214.578613	1233.865845
736.519958	4203.279297	1256.464111
736.841980	4128.705078	1301.660645
737.163940	4072.209473	1215.787231
737.485840	4074.469238	1342.337646
737.807678	4045.091309	1308.440186
738.129517	3950.178711	1272.282959
738.451233	4002.154785	1317.479492
738.773010	4015.713623	1299.400879
739.094666	4121.925781	1272.282959
739.416260	4142.264160	1378.494873
739.737854	4045.091309	1260.983765
740.059448	4094.807617	1303.920532
740.380859	4094.807617	1242.905151
740.702332	4038.312012	1349.117065
741.023682	4054.130859	1312.959839
741.345032	4042.831543	1333.298340
741.666321	3972.776855	1283.582031
741.987549	3846.226563	1290.361572
742.308777	3907.241943	1297.140991
742.629944	3977.296631	1238.385498
742.950989	3834.927490	1335.558105
743.272095	3660.920654	1272.282959
743.593140	3846.226563	1360.416260
743.914063	3651.881348	1308.440186
744.234985	3676.739502	1265.503418
744.555847	3651.881348	1276.802612
744.876648	3665.440430	1281.322266
745.197449	3660.920654	1254.204346
745.518188	3694.818115	1321.999146
745.838867	3649.621582	1285.841919
746.159485	3570.527588	1387.534180
746.480042	3493.693604	1315.219727
746.800537	3464.315674	1220.306885
747.121094	3566.008057	1315.219727
747.441528	3599.905273	1333.298340
747.761902	3538.890137	1258.723999
748.082275	3382.961914	1249.684692
748.402588	3529.850830	1355.896606
748.722839	3486.914063	1321.999146
749.043030	3604.425049	1299.400879
749.363159	3559.228516	1312.959839
749.683289	3631.542969	1315.219727
750.003357	3500.472900	1333.298340
750.323303	3563.748047	1233.865845
750.643311	3638.322510	1367.195679
750.963257	3859.785645	1466.628174
751.283142	3570.527588	1378.494873
751.602905	3568.267822	1276.802612
751.922729	3712.896729	1448.549561
752.242432	3543.409668	1310.700073
752.562134	3437.197754	1308.440186
752.881714	3527.590820	1202.228271
753.201355	3380.702148	1319.739380
753.520874	3317.427002	1292.621338
753.840393	3443.977295	1274.542725
754.159851	3340.025146	1294.881226
754.479248	3369.403076	1292.621338
754.798523	3425.898682	1288.101685
755.117859	3394.260986	1306.180420
755.437134	3335.505615	1274.542725
755.756348	3407.820068	1405.612793
756.075500	3283.529541	1335.558105
756.394653	3398.780762	1288.101685
756.713623	3321.946533	1312.959839
757.032654	3229.293701	1281.322266
757.351624	3267.710693	1315.219727
757.670532	3163.758545	1342.337646
757.989441	3236.073242	1242.905151
758.308289	3258.671387	1294.881226
758.627014	3351.324463	1333.298340
758.945801	3344.544922	1288.101685
759.264404	3337.765381	1294.881226
759.583130	3373.922607	1389.793945
759.901611	3498.213135	1328.778687
760.220215	3382.961914	1376.234985
760.538635	3394.260986	1432.730713
760.857117	3306.127686	1209.007813
761.175537	3511.772217	1462.108521
761.493896	3265.450928	1326.518799
761.812134	3349.064453	1353.636719
762.130432	3543.409668	1434.990479
762.448608	3405.560303	1270.023071
762.766785	3575.047363	1392.053833
763.084900	3493.693604	1416.911865
763.402954	3480.134521	1301.660645
763.720947	3703.857422	1276.802612
764.038940	3880.124023	1249.684692
764.356750	4054.130859	1333.298340
764.674683	4167.122070	1211.267578
764.992493	4289.152832	1285.841919
765.310303	4345.648438	1398.833252
765.627930	4210.059082	1251.944458
765.945679	4343.388672	1444.029785
766.263306	4133.224609	1396.573486
766.580872	3941.139404	1373.975220
766.898376	3749.053955	1267.763306
767.215881	3599.905273	1254.204346
767.533325	3581.826660	1303.920532
767.850708	3473.354980	1222.566772
768.168030	3443.977295	1355.896606
768.485352	3351.324463	1310.700073
768.802551	3351.324463	1263.243652
769.119751	3190.876709	1251.944458
769.436890	3152.459473	1317.479492
769.753967	3170.538086	1272.282959
770.071045	3166.018555	1294.881226
770.388062	3233.813232	1321.999146
770.704956	3073.365479	1209.007813
771.021912	3154.719238	1340.077759
771.338684	3021.389404	1177.370239
771.655579	3021.389404	1249.684692
771.972351	3086.924561	1358.156372
772.289063	2944.555420	1294.881226
772.605713	2958.114258	1346.857300
772.922302	2928.736572	1328.778687
773.238831	2912.917725	1301.660645
773.555420	3105.003174	1358.156372
773.871826	2881.280273	1247.424805
774.188293	2917.437500	1385.274292
774.504639	2908.398193	1371.715332
774.820984	2869.980957	1324.259033
775.137207	2831.563965	1328.778687
775.453552	2831.563965	1249.684692
775.769592	2790.887207	1346.857300
776.085815	2856.422119	1324.259033
776.401855	2827.044434	1260.983765
776.717896	2777.328125	1344.597412
777.033875	2906.138428	1342.337646
777.349854	2799.926514	1294.881226
777.665710	2766.029053	1215.787231
777.981567	2750.210205	1369.455566
778.297363	2711.793213	1229.346191
778.613098	2648.518066	1267.763306
778.928772	2827.044434	1337.817993
779.244385	2894.839111	1274.542725
779.559998	2962.634033	1360.416260
779.875488	2888.059570	1247.424805
780.191040	2919.697266	1279.062378
780.506470	2698.234131	1288.101685
780.821899	2856.422119	1317.479492
781.137207	2845.123047	1281.322266
781.452576	2686.935059	1294.881226
781.767822	2827.044434	1319.739380
782.083069	2709.533203	1229.346191
782.398193	2653.037598	1227.086426
782.713379	2736.651123	1324.259033
783.028381	2754.729980	1340.077759
783.343384	2596.541992	1242.905151
783.658386	2607.841064	1227.086426
783.973328	2695.974365	1285.841919
784.288086	2709.533203	1353.636719
784.602966	2655.297363	1222.566772
784.917725	2646.258057	1349.117065
785.232483	2546.825684	1349.117065
785.547119	2603.321289	1373.975220
785.861755	2562.644531	1326.518799
786.176270	2576.203369	1258.723999
786.490845	2551.345459	1317.479492
786.805298	2413.495850	1267.763306
787.119751	2634.958984	1335.558105
787.434143	2499.369385	1249.684692
787.748474	2549.085449	1299.400879
788.062744	2585.242676	1315.219727
788.377014	2668.856445	1340.077759
788.691162	2573.943604	1312.959839
789.005310	2732.131592	1242.905151
789.319397	2691.454590	1260.983765
789.633423	2673.375977	1276.802612
789.947449	2738.911133	1260.983765
790.261414	2788.627197	1292.621338
790.575256	2743.430664	1290.361572
790.889160	2750.210205	1410.132446
791.202881	2630.439453	1319.739380
791.516663	2610.100830	1306.180420
791.830322	2677.895752	1308.440186
792.144043	2560.384766	1272.282959
792.457581	2499.369385	1344.597412
792.771118	2506.148926	1260.983765
793.084656	2616.880371	1410.132446
793.398071	2456.432617	1389.793945
793.711487	2408.976318	1340.077759
794.024841	2465.471924	1315.219727
794.338135	2465.471924	1260.983765
794.651428	2377.338623	1274.542725
794.964600	2458.692383	1376.234985
795.277771	2418.015625	1294.881226
795.590881	2472.251465	1364.935913
795.903931	2616.880371	1401.093140
796.216980	2431.574463	1285.841919
796.529907	2535.526611	1407.872559
796.842834	2379.598389	1324.259033
797.155701	2494.849609	1371.715332
797.468506	2587.502686	1326.518799
797.781250	2533.266846	1288.101685
798.093994	2454.172852	1285.841919
798.406677	2483.550537	1331.038452
798.719238	2377.338623	1267.763306
799.031921	2485.810303	1328.778687
799.344360	2488.070313	1301.660645
799.656860	2424.794922	1281.322266
799.969299	2375.078857	1294.881226
800.281677	2370.559082	1238.385498
800.593933	2338.921631	1315.219727
800.906250	2429.314697	1254.204346
801.218445	2275.646484	1285.841919
801.530640	2363.779785	1283.582031
801.842712	2366.039551	1199.968506
802.154846	2366.039551	1263.243652
802.466797	2298.244629	1256.464111
802.778870	2359.260010	1328.778687
803.090759	2368.299316	1369.455566
803.402649	2248.528564	1220.306885
803.714478	2232.709717	1274.542725
804.026245	2210.111328	1317.479492
804.337952	2329.882324	1258.723999
804.649658	2327.622559	1335.558105
804.961243	2282.425781	1224.826538
805.272888	2406.716309	1333.298340
805.584412	2320.843018	1274.542725
805.895874	2250.788330	1328.778687
806.207336	2327.622559	1358.156372
806.518677	2244.008789	1283.582031
806.830017	2307.283936	1272.282959
807.141357	2357.000244	1256.464111
807.452576	2422.535156	1342.337646
807.763733	2395.417236	1306.180420
808.074890	2323.102783	1281.322266
808.385925	2476.770996	1421.431519
808.697021	2393.157471	1355.896606
809.007935	2431.574463	1398.833252
809.318909	2368.299316	1371.715332
809.629822	2293.725098	1303.920532
809.940674	2239.489258	1254.204346
810.251404	2210.111328	1319.739380
810.562195	2388.637695	1358.156372
810.872864	2140.056641	1315.219727
811.183533	2137.796875	1209.007813
811.494080	2140.056641	1342.337646
811.804626	2212.371338	1294.881226
812.115112	2162.655029	1270.023071
812.425598	2117.458496	1233.865845
812.735962	2121.978027	1233.865845
813.046326	2178.473877	1353.636719
813.356628	2232.709717	1398.833252
813.666870	2097.120117	1317.479492
813.976990	2040.624390	1245.165039
814.287170	2103.899414	1303.920532
814.597290	2230.449951	1337.817993
814.907349	2049.663574	1251.944458
815.217346	2259.827637	1414.652100
815.527283	2083.561035	1328.778687
815.837158	2112.938721	1229.346191
816.147034	2271.126709	1380.754639
816.456787	2049.663574	1380.754639
816.766541	2153.615723	1310.700073
817.076233	2173.954102	1301.660645
817.385925	2137.796875	1335.558105
817.695496	2368.299316	1500.525513
818.005066	2205.591797	1340.077759
818.314514	2146.836182	1292.621338
818.623962	2124.238037	1294.881226
818.933350	2171.694336	1321.999146
819.242737	2268.866943	1380.754639
819.552002	2173.954102	1270.023071
819.861328	2214.631104	1385.274292
820.170471	2234.969482	1197.708618
820.479675	2361.519775	1342.337646
820.788696	2429.314697	1319.739380
821.097839	2388.637695	1331.038452
821.406738	2569.424072	1464.368286
821.715698	2592.022217	1358.156372
822.024597	2786.367432	1272.282959
822.333435	3382.961914	1394.313599
822.642273	4153.562988	1328.778687
822.950989	4964.841309	1288.101685
823.259705	5984.023438	1290.361572
823.568359	6528.642090	1360.416260
823.876953	7113.937500	1358.156372
824.185486	7213.369629	1308.440186
824.494019	6924.111816	1281.322266
824.802429	6494.744629	1317.479492
825.110840	5676.687012	1281.322266
825.419189	5294.775879	1337.817993
825.727478	4777.275391	1272.282959
826.035767	4359.207520	1215.787231
826.343933	4375.026367	1276.802612
826.652100	4108.366699	1292.621338
826.960144	3850.746338	1290.361572
827.268250	3857.525635	1333.298340
827.576233	3936.619629	1423.691406
827.884155	3789.730957	1317.479492
828.192017	3961.477783	1290.361572
828.499878	4056.390625	1301.660645
828.807678	3977.296631	1276.802612
829.115479	3932.100098	1260.983765
829.423096	3733.235107	1236.125732
829.730835	3604.425049	1308.440186
830.038330	3190.876709	1211.267578
830.345947	3014.610107	1247.424805
830.653442	2967.153564	1256.464111
830.960876	2777.328125	1276.802612
831.268250	2643.998291	1245.165039
831.575623	2533.266846	1283.582031
831.882874	2418.015625	1251.944458
832.190125	2334.401855	1312.959839
832.497314	2413.495850	1364.935913
832.804504	2361.519775	1326.518799
833.111572	2133.277344	1310.700073
833.418640	2216.890869	1301.660645
833.725586	2228.189941	1335.558105
834.032532	2357.000244	1283.582031
834.339417	2526.487305	1364.935913
834.646301	2648.518066	1315.219727
834.953003	2910.657959	1299.400879
835.259827	2888.059570	1317.479492
835.566467	2910.657959	1371.715332
835.873108	3028.168945	1263.243652
836.179688	2788.627197	1346.857300
836.486267	2745.690430	1222.566772
836.792664	2766.029053	1340.077759
837.099121	2564.904297	1229.346191
837.405518	2614.620605	1387.534180
837.711792	2399.937012	1290.361572
838.018127	2280.166016	1283.582031
838.324341	2219.150635	1303.920532
838.630554	2164.914795	1272.282959
838.936646	2079.041504	1267.763306
839.242737	2033.844849	1342.337646
839.548767	1995.427734	1331.038452
839.854797	2002.207275	1371.715332
840.160645	1975.089355	1263.243652
840.466553	1893.735596	1242.905151
840.772400	1941.191895	1326.518799
841.078186	2072.261963	1312.959839
841.383850	1947.971436	1238.385498
841.689575	2045.144043	1240.645386
841.995178	1972.829468	1299.400879
842.300781	2033.844849	1272.282959
842.606262	2006.726929	1346.857300
842.911743	1977.349121	1335.558105
843.217163	1868.877441	1285.841919
843.522583	1864.357788	1272.282959
843.827881	1828.200562	1209.007813
844.133179	1807.862061	1306.180420
844.438354	1816.901367	1279.062378
844.743530	1814.641602	1240.645386
845.048645	1834.979980	1351.376953
845.353760	1708.429688	1213.527466
845.658752	1873.397095	1462.108521
845.963745	1859.838135	1385.274292
846.268555	1735.547607	1290.361572
846.573486	1710.689453	1251.944458
846.878296	1814.641602	1369.455566
847.183044	1647.414307	1308.440186
847.487732	1658.713501	1265.503418
847.792419	1683.571533	1351.376953
848.097046	1665.492920	1353.636719
848.401611	1638.375000	1256.464111
848.706055	1674.532227	1297.140991
849.010559	1699.390381	1292.621338
849.314941	1735.547607	1371.715332
849.619324	1651.933960	1321.999146
849.923584	1570.580200	1197.708618
850.227844	1602.217773	1290.361572
850.532043	1640.634888	1281.322266
850.836243	1615.776733	1265.503418
851.140320	1620.296387	1308.440186
851.444397	1629.335693	1260.983765
851.748352	1602.217773	1344.597412
852.052307	1683.571533	1401.093140
852.356140	1674.532227	1328.778687
852.660095	1627.075928	1328.778687
852.963806	1712.949341	1401.093140
853.267578	1862.097900	1473.407593
853.571228	1665.492920	1340.077759
853.874939	1670.012573	1283.582031
854.178467	1615.776733	1315.219727
854.482056	1593.178467	1283.582031
854.785461	1649.674194	1312.959839
855.088989	1561.540894	1355.896606
855.392273	1613.516968	1265.503418
855.695679	1688.091187	1288.101685
855.998901	1740.067261	1423.691406
856.302185	1640.634888	1346.857300
856.605286	1640.634888	1369.455566
856.908508	1627.075928	1247.424805
857.211548	1636.115234	1256.464111
857.514587	1554.761353	1346.857300
857.817566	1566.060547	1294.881226
858.120483	1563.800659	1233.865845
858.423340	1622.556274	1326.518799
858.726196	1622.556274	1321.999146
859.028931	1645.154541	1337.817993
859.331665	1575.099854	1267.763306
859.634277	1647.414307	1376.234985
859.936890	1654.193848	1308.440186
860.239441	1468.887939	1297.140991
860.541992	1520.864014	1312.959839
860.844421	1624.816040	1249.684692
861.146912	1559.281006	1294.881226
861.449219	1527.643433	1240.645386
861.751526	1615.776733	1346.857300
862.053772	1670.012573	1448.549561
862.355957	1762.665527	1328.778687
862.658081	1563.800659	1378.494873
862.960266	1547.981934	1227.086426
863.262207	1588.658813	1351.376953
863.564331	1663.233154	1398.833252
863.866211	1611.257080	1267.763306
864.168091	1620.296387	1263.243652
864.469910	1550.241699	1279.062378
864.771729	1608.997314	1290.361572
865.073425	1660.973267	1276.802612
865.375122	1534.422974	1299.400879
865.676819	1563.800659	1285.841919
865.978333	1505.045166	1249.684692
866.279907	1642.894653	1351.376953
866.581360	1604.477661	1383.014526
866.882874	1491.486206	1283.582031
867.184143	1642.894653	1263.243652
867.485535	1563.800659	1290.361572
867.786743	1660.973267	1310.700073
868.088013	1699.390381	1355.896606
868.389160	1615.776733	1337.817993
868.690308	1572.839966	1254.204346
868.991333	1559.281006	1353.636719
869.292358	1557.021240	1351.376953
869.593323	1667.752808	1473.407593
869.894287	1554.761353	1285.841919
870.195068	1604.477661	1303.920532
870.495911	1547.981934	1319.739380
870.796692	1577.359619	1247.424805
871.097412	1552.501587	1328.778687
871.398010	1604.477661	1385.274292
871.698669	1525.383667	1306.180420
871.999207	1545.722046	1218.047119
872.299683	1563.800659	1310.700073
872.600159	1633.855347	1299.400879
872.900574	1561.540894	1265.503418
873.200867	1584.139160	1283.582031
873.501160	1541.202393	1342.337646
873.801392	1498.265747	1297.140991
874.101624	1566.060547	1290.361572
874.401733	1550.241699	1328.778687
874.701843	1620.296387	1249.684692
875.001831	1620.296387	1371.715332
875.301819	1581.879272	1321.999146
875.601746	1645.154541	1364.935913
875.901672	1541.202393	1308.440186
876.201477	1534.422974	1202.228271
876.501282	1581.879272	1294.881226
876.800964	1529.903320	1285.841919
877.100647	1572.839966	1362.676025
877.400208	1595.438354	1267.763306
877.699829	1590.918701	1385.274292
877.999329	1507.305054	1358.156372
878.298767	1516.344360	1222.566772
878.598206	1586.398926	1308.440186
878.897583	1622.556274	1276.802612
879.196838	1615.776733	1351.376953
879.496155	1633.855347	1256.464111
879.795288	1663.233154	1416.911865
880.094482	1629.335693	1355.896606
880.393555	1638.375000	1263.243652
880.692627	1701.650146	1258.723999
880.991577	1751.366455	1283.582031
881.290588	1783.004028	1333.298340
881.589355	1855.318481	1288.101685
881.888306	2189.772949	1360.416260
882.187012	2436.094238	1337.817993
882.485840	2648.518066	1281.322266
882.784424	2992.011719	1351.376953
883.083069	3172.797852	1267.763306
883.381592	3608.944580	1333.298340
883.680176	3495.953369	1260.983765
883.978638	3554.708740	1258.723999
884.277039	3541.149902	1274.542725
884.575378	3480.134521	1324.259033
884.873779	3170.538086	1256.464111
885.171997	3186.356934	1308.440186
885.470276	3118.562012	1394.313599
885.768311	2813.485352	1312.959839
886.066528	2616.880371	1324.259033
886.364502	2501.629150	1290.361572
886.662537	2438.354004	1195.448853
886.960510	2388.637695	1260.983765
887.258362	2237.229248	1285.841919
887.556213	2011.246582	1263.243652
887.854004	1968.309814	1254.204346
888.151733	1943.451782	1403.352905
888.449402	1789.783447	1371.715332
888.747009	1823.680908	1310.700073
889.044617	1726.508301	1360.416260
889.342163	1731.027954	1263.243652
889.639648	1724.248413	1229.346191
889.937012	1740.067261	1294.881226
890.234436	1640.634888	1324.259033
890.531738	1744.586914	1279.062378
890.829041	1719.728760	1231.606079
891.126221	1602.217773	1328.778687
891.423401	1667.752808	1251.944458
891.720459	1559.281006	1256.464111
892.017578	1663.233154	1285.841919
892.314514	1597.698120	1303.920532
892.611511	1647.414307	1258.723999
>>>>>End Processed Spectral Data<<<<<
